Date,ClosingPrice,Ma10,Wma10,Momentum10
1/2/1998 00:00:00,28.75,,,
1/5/1998 00:00:00,28.9688,,,
1/6/1998 00:00:00,28.8438,,,
1/7/1998 00:00:00,28.8125,,,
1/8/1998 00:00:00,28.4375,,,
1/9/1998 00:00:00,27.125,,,
1/12/1998 00:00:00,27.125,,,
1/13/1998 00:00:00,26.6563,,,
1/14/1998 00:00:00,27.2188,,,
1/15/1998 00:00:00,27.5938,,,
1/16/1998 00:00:00,28.0625,27.8844,27.6096836363636,-0.906300000000002
1/20/1998 00:00:00,28.6875,27.85627,27.7557018181818,-0.156300000000002
1/21/1998 00:00:00,28.5,27.82189,27.8727436363636,-0.3125
1/22/1998 00:00:00,28.2813,27.76877,27.9562727272727,-0.156199999999998
1/23/1998 00:00:00,27.1875,27.64377,27.8505872727273,0.0625
1/26/1998 00:00:00,28,27.73127,27.9153563636364,0.875
1/27/1998 00:00:00,28.5313,27.8719,28.0608163636364,1.875
1/28/1998 00:00:00,28.3125,28.03752,28.1409254545455,1.0937
1/29/1998 00:00:00,28.375,28.15314,28.2022854545455,0.781199999999998
1/30/1998 00:00:00,28.6875,28.26251,28.2994418181818,0.625
2/2/1998 00:00:00,29.5625,28.41251,28.5358036363636,0.875
2/3/1998 00:00:00,29.5313,28.49689,28.73922,1.0313
2/4/1998 00:00:00,29.8125,28.62814,28.9784218181818,1.5312
2/5/1998 00:00:00,29.9375,28.79376,29.2164872727273,2.75
2/6/1998 00:00:00,30.75,29.15001,29.5721672727273,2.75
2/9/1998 00:00:00,30.2813,29.37814,29.7778563636364,1.75
2/10/1998 00:00:00,30.0938,29.53439,29.9079763636364,1.7813
2/11/1998 00:00:00,30.4063,29.74377,30.0665054545455,2.0313
2/12/1998 00:00:00,30.6875,29.97502,30.2380927272727,2
2/13/1998 00:00:00,30.2188,30.12815,30.2824163636364,0.656300000000002
2/17/1998 00:00:00,30.5,30.2219,30.3500254545455,0.968699999999998
2/18/1998 00:00:00,30.9375,30.36252,30.4801345454545,1.125
2/19/1998 00:00:00,30.5938,30.44065,30.5221854545455,0.656300000000002
2/20/1998 00:00:00,31,30.5469,30.6238854545455,0.25
2/23/1998 00:00:00,31.375,30.6094,30.7744490909091,1.0937
2/24/1998 00:00:00,31.7813,30.7594,30.9875218181818,1.6875
2/25/1998 00:00:00,31.5,30.90002,31.1221763636364,1.0937
2/26/1998 00:00:00,32.75,31.13439,31.4585363636364,2.0625
2/27/1998 00:00:00,32.4063,31.30627,31.6897927272727,2.1875
3/2/1998 00:00:00,32.2188,31.50627,31.8557072727273,1.7188
3/3/1998 00:00:00,32.4688,31.70315,32.0307127272727,1.5313
3/4/1998 00:00:00,32.5938,31.86878,32.1926490909091,2
3/5/1998 00:00:00,32.625,32.0719,32.3301436363636,1.625
3/6/1998 00:00:00,32.75,32.2469,32.4534345454545,1.375
3/9/1998 00:00:00,32.625,32.3719,32.52218,0.843699999999998
3/10/1998 00:00:00,32.7188,32.46565,32.5852527272727,1.2188
3/11/1998 00:00:00,32.75,32.59065,32.6369527272727,0
3/12/1998 00:00:00,32.7188,32.58753,32.6602527272727,0.3125
3/13/1998 00:00:00,32.25,32.5719,32.5988836363636,0.0311999999999983
3/16/1998 00:00:00,33.4375,32.69377,32.7562654545454,0.968699999999998
3/17/1998 00:00:00,32.7188,32.71877,32.7608163636364,0.125
3/18/1998 00:00:00,33.0313,32.76252,32.81764,0.406300000000002
3/19/1998 00:00:00,33.3438,32.8344,32.9233272727273,0.593800000000002
3/20/1998 00:00:00,33.3125,32.89065,33.0102545454545,0.6875
3/23/1998 00:00:00,33.75,33.00315,33.1665,1.0312
3/24/1998 00:00:00,33.8438,33.11565,33.3193454545454,1.0938
3/25/1998 00:00:00,34.0313,33.24378,33.4858272727273,1.3125
3/26/1998 00:00:00,33.9375,33.36565,33.6119581818182,1.6875
3/27/1998 00:00:00,33.5,33.49065,33.6363854545455,0.0625
3/30/1998 00:00:00,33.2188,33.46878,33.5869581818182,0.5
3/31/1998 00:00:00,33.9688,33.59378,33.6778709090909,0.9375
4/1/1998 00:00:00,34.375,33.72815,33.8199109090909,1.0312
4/2/1998 00:00:00,34.5625,33.85002,33.9716109090909,1.25
4/3/1998 00:00:00,34.4063,33.9594,34.0727527272727,0.656300000000002
4/6/1998 00:00:00,33.9375,33.97815,34.0687709090909,0.0936999999999983
4/7/1998 00:00:00,34.25,34.01877,34.1181981818182,0.218699999999998
4/8/1998 00:00:00,34.1563,34.03127,34.1432036363636,0.218800000000002
4/9/1998 00:00:00,34.625,34.10002,34.2511545454545,1.125
4/13/1998 00:00:00,34.25,34.17502,34.2784236363636,1.0312
4/14/1998 00:00:00,35.125,34.36564,34.4511472727273,1.1562
4/15/1998 00:00:00,35.25,34.49376,34.61194,0.875
4/16/1998 00:00:00,35.2188,34.57814,34.7437654545455,0.656300000000002
4/17/1998 00:00:00,36.5,34.77189,35.0931945454545,2.0937
4/20/1998 00:00:00,36.5938,34.99064,35.4244509090909,2.6563
4/21/1998 00:00:00,36.625,35.25939,35.7216072727273,2.375
4/22/1998 00:00:00,36.7188,35.50627,35.9869545454545,2.5625
4/23/1998 00:00:00,35.8438,35.67502,36.0483236363636,1.2188
4/24/1998 00:00:00,35.2188,35.7344,35.9653745454545,0.968800000000002
4/27/1998 00:00:00,35.0938,35.81878,35.8489018181818,-0.0311999999999983
4/28/1998 00:00:00,35.3125,35.83753,35.7568509090909,0.0625
4/29/1998 00:00:00,35.2188,35.83441,35.6443545454545,0
4/30/1998 00:00:00,35.3438,35.84691,35.5551527272727,-1.1562
5/1/1998 00:00:00,35.6563,35.76254,35.5204963636364,-0.9375
5/4/1998 00:00:00,35.8438,35.68754,35.5352709090909,-0.781199999999998
5/5/1998 00:00:00,35.9375,35.61879,35.5807181818182,-0.781300000000002
5/6/1998 00:00:00,35.1875,35.46566,35.5023018181818,-0.656300000000002
5/7/1998 00:00:00,35.0625,35.38753,35.429,-0.156300000000002
5/8/1998 00:00:00,35.7813,35.44378,35.5005945454545,0.6875
5/11/1998 00:00:00,36.125,35.5469,35.6244527272727,0.8125
5/12/1998 00:00:00,37.625,35.77815,36.0022890909091,2.4062
5/13/1998 00:00:00,38.1563,36.0719,36.43468,2.8125
5/14/1998 00:00:00,38,36.33752,36.7852436363636,2.3437
5/15/1998 00:00:00,37.9063,36.56252,37.0704763636364,2.0625
5/18/1998 00:00:00,37.7813,36.75627,37.2920727272727,1.8438
5/19/1998 00:00:00,38.0625,36.96877,37.5295690909091,2.875
5/20/1998 00:00:00,37.7813,37.22815,37.6773018181818,2.7188
5/21/1998 00:00:00,37.7188,37.49378,37.7665109090909,1.9375
5/22/1998 00:00:00,37.625,37.67815,37.7903690909091,1.5
5/26/1998 00:00:00,36.7813,37.74378,37.6273054545455,-0.843699999999998
5/27/1998 00:00:00,36.2188,37.60316,37.3500363636364,-1.9375
5/28/1998 00:00:00,36.75,37.46253,37.1949163636364,-1.25
5/29/1998 00:00:00,36.4375,37.30628,37.0085472727273,-1.4688
6/1/1998 00:00:00,36.625,37.17815,36.8846781818182,-1.1563
6/2/1998 00:00:00,37.0625,37.10627,36.8636509090909,-1
6/3/1998 00:00:00,36.9375,36.99377,36.8329654545455,-0.843800000000002
6/4/1998 00:00:00,36.5938,36.87502,36.7602436363636,-1.125
6/5/1998 00:00:00,37.5,36.85314,36.8738763636364,-0.125
6/8/1998 00:00:00,37.4375,36.83439,36.9801236363636,0.656199999999998
6/9/1998 00:00:00,37.5,36.90626,37.1011436363636,1.2812
6/10/1998 00:00:00,35.9688,36.88126,36.9306963636364,-0.781199999999998
6/11/1998 00:00:00,35.875,36.79376,36.74774,-0.5625
6/12/1998 00:00:00,35.1563,36.66564,36.45002,-1.4687
6/15/1998 00:00:00,34.5625,36.45939,36.0676309090909,-2.5
6/16/1998 00:00:00,34.875,36.24064,35.77956,-2.0625
6/17/1998 00:00:00,34.75,36.02189,35.5085345454546,-1.8438
6/18/1998 00:00:00,34.625,35.82501,35.2545545454545,-2.875
6/19/1998 00:00:00,32.75,35.35001,34.6954618181818,-4.6875
6/22/1998 00:00:00,31.8125,34.78751,34.0522781818182,-5.6875
6/23/1998 00:00:00,32.9063,34.32814,33.71024,-3.0625
6/24/1998 00:00:00,33.1875,34.05001,33.5028509090909,-2.6875
6/25/1998 00:00:00,32.9688,33.75939,33.3062672727273,-2.1875
6/26/1998 00:00:00,33.375,33.58126,33.2363781818182,-1.1875
6/29/1998 00:00:00,33.5,33.47501,33.2216036363636,-1.375
6/30/1998 00:00:00,34.7813,33.46564,33.4591109090909,0.0313000000000017
7/1/1998 00:00:00,35,33.49064,33.7380854545455,0.375
7/2/1998 00:00:00,35,33.52814,34.0125145454545,2.25
7/6/1998 00:00:00,35.25,33.77814,34.32558,3.4375
7/7/1998 00:00:00,35.0313,34.10002,34.5534272727273,2.125
7/8/1998 00:00:00,35.0625,34.31564,34.7284236363636,1.875
7/9/1998 00:00:00,33.9688,34.39377,34.6653618181818,1
7/10/1998 00:00:00,34.0938,34.50627,34.6108218181818,0.718800000000002
7/13/1998 00:00:00,34,34.56877,34.5187727272727,0.5
7/14/1998 00:00:00,34.8438,34.70315,34.5687781818182,0.0625
7/15/1998 00:00:00,35,34.72502,34.6227509090909,0
7/16/1998 00:00:00,34.375,34.66252,34.5591109090909,-0.625
7/17/1998 00:00:00,33.5,34.51252,34.3477436363636,-1.75
7/20/1998 00:00:00,33.75,34.36252,34.2091036363636,-1.2813
7/21/1998 00:00:00,33.6875,34.22814,34.0863727272727,-1.375
7/22/1998 00:00:00,33.375,34.05939,33.9312563636364,-0.593800000000002
7/23/1998 00:00:00,32.6563,33.92814,33.6761490909091,-1.4375
7/24/1998 00:00:00,32.75,33.79376,33.4619418181818,-1.25
7/27/1998 00:00:00,32.375,33.63126,33.2039854545455,-2.4688
7/28/1998 00:00:00,32.4688,33.39376,32.9926290909091,-2.5312
7/29/1998 00:00:00,32.0938,33.10314,32.7562727272727,-2.2812
7/30/1998 00:00:00,32.875,32.95314,32.7147927272727,-0.625
7/31/1998 00:00:00,31.6875,32.77189,32.4846763636364,-2.0625
8/3/1998 00:00:00,31.5,32.54689,32.2534236363636,-2.1875
8/4/1998 00:00:00,30.9688,32.27502,31.9664981818182,-2.4062
8/5/1998 00:00:00,30.3438,31.9719,31.6153672727273,-2.3125
8/6/1998 00:00:00,30.5625,31.76252,31.3591127272727,-2.1875
8/7/1998 00:00:00,30.875,31.57502,31.1977454545455,-1.5
8/10/1998 00:00:00,30.4063,31.37815,30.9852509090909,-2.0625
8/11/1998 00:00:00,29.6563,31.0969,30.6721872727273,-2.4375
8/12/1998 00:00:00,30.0938,30.8969,30.4898054545455,-2.7812
8/13/1998 00:00:00,29.5313,30.56253,30.2415145454545,-2.1562
8/14/1998 00:00:00,28.25,30.21878,29.8210545454545,-3.25
8/17/1998 00:00:00,29.375,30.00628,29.66764,-1.5938
8/18/1998 00:00:00,29.7813,29.88753,29.6267345454546,-0.5625
8/19/1998 00:00:00,29.9063,29.84378,29.6301472727273,-0.656199999999998
8/20/1998 00:00:00,29.6875,29.75628,29.6017327272727,-1.1875
8/21/1998 00:00:00,28.6875,29.53753,29.4074090909091,-1.7188
8/24/1998 00:00:00,28.5313,29.35003,29.2244581818182,-1.125
8/25/1998 00:00:00,28.8125,29.26565,29.1267254545455,-1.2813
8/26/1998 00:00:00,28.9375,29.15002,29.0670618181818,-0.593800000000002
8/27/1998 00:00:00,27.5938,28.95627,28.7841127272727,-0.656199999999998
8/28/1998 00:00:00,26.8438,28.81565,28.4000272727273,-2.5312
8/31/1998 00:00:00,25.4063,28.41878,27.7801454545455,-4.375
9/1/1998 00:00:00,26.0313,28.04378,27.3460581818182,-3.875
9/2/1998 00:00:00,25.7813,27.63128,26.9346981818182,-3.9062
9/3/1998 00:00:00,26.4688,27.30941,26.7233381818182,-2.2187
9/4/1998 00:00:00,26.3438,27.07504,26.5477727272727,-2.1875
9/8/1998 00:00:00,27.3125,26.95316,26.5909472727273,-1.5
9/9/1998 00:00:00,26.9375,26.76566,26.5881,-2
9/10/1998 00:00:00,25.25,26.39691,26.3125254545455,-2.3438
9/11/1998 00:00:00,26.25,26.26253,26.2858145454545,-0.593800000000002
9/14/1998 00:00:00,26.9688,26.27503,26.4142272727273,1.5625
9/15/1998 00:00:00,27.6875,26.50315,26.67104,1.6562
9/16/1998 00:00:00,27.2188,26.6219,26.8011581818182,1.4375
9/17/1998 00:00:00,26.4375,26.68752,26.7676309090909,-0.0313000000000017
9/18/1998 00:00:00,26.0625,26.64689,26.6539909090909,-0.281300000000002
9/21/1998 00:00:00,26.0313,26.61564,26.5420654545455,-1.2812
9/22/1998 00:00:00,26,26.48439,26.4301309090909,-0.9375
9/23/1998 00:00:00,26.5313,26.44377,26.43866,1.2813
9/24/1998 00:00:00,26.5,26.56877,26.4488836363636,0.25
9/25/1998 00:00:00,26.3125,26.57502,26.4022890909091,-0.656300000000002
9/28/1998 00:00:00,27.8125,26.65939,26.6272854545455,0.125
9/29/1998 00:00:00,28.3125,26.72189,26.9278509090909,1.0937
9/30/1998 00:00:00,27.2813,26.72814,27.0295618181818,0.843800000000002
10/1/1998 00:00:00,26.125,26.69689,26.9199,0.0625
10/2/1998 00:00:00,26.375,26.72814,26.8613745454545,0.343699999999998
10/5/1998 00:00:00,26.375,26.76251,26.7971672727273,0.375
10/6/1998 00:00:00,26.4688,26.80939,26.7437654545455,-0.0625
10/7/1998 00:00:00,27,26.85626,26.7784218181818,0.5
10/8/1998 00:00:00,26.3438,26.84064,26.6852472727273,0.0313000000000017
10/9/1998 00:00:00,28.25,27.03439,26.9414945454545,0.4375
10/12/1998 00:00:00,27.6563,27.01877,27.0545690909091,-0.656199999999998
10/13/1998 00:00:00,27.1563,26.90315,27.0795745454545,-0.125
10/14/1998 00:00:00,26.9375,26.86877,27.08582,0.8125
10/15/1998 00:00:00,30,27.25627,27.6551345454546,3.625
10/16/1998 00:00:00,30.0625,27.62502,28.1653581818182,3.6875
10/19/1998 00:00:00,30.4375,28.03127,28.6767181818182,3.9687
10/20/1998 00:00:00,29.875,28.37189,29.0119418181818,2.875
10/21/1998 00:00:00,28.9375,28.56564,29.11478,2.5937
10/22/1998 00:00:00,28.3125,28.76251,29.0687545454545,0.0625
10/23/1998 00:00:00,28.0938,28.74689,28.9471709090909,0.4375
10/26/1998 00:00:00,27.6875,28.75001,28.7545545454545,0.531199999999998
10/27/1998 00:00:00,27.0313,28.73751,28.4420618181818,0.0938000000000017
10/28/1998 00:00:00,26.6563,28.70939,28.06366,-3.3437
10/29/1998 00:00:00,27.6563,28.47502,27.8721890909091,-2.4062
10/30/1998 00:00:00,28.5938,28.32815,27.8937854545455,-1.8437
11/2/1998 00:00:00,29.4063,28.22503,28.0898127272727,-0.468699999999998
11/3/1998 00:00:00,29.6875,28.20628,28.3557163636364,0.75
11/4/1998 00:00:00,29.8125,28.29378,28.6477563636364,1.5
11/5/1998 00:00:00,31,28.56253,29.1397963636364,2.9062
11/6/1998 00:00:00,30.75,28.82815,29.5375181818182,3.0625
11/9/1998 00:00:00,30.0625,29.06565,29.7619454545455,3.0312
11/10/1998 00:00:00,29.2813,29.29065,29.8011545454545,2.625
11/11/1998 00:00:00,29,29.52502,29.7483090909091,1.3437
11/12/1998 00:00:00,29.1875,29.67814,29.6869418181818,0.593699999999998
11/13/1998 00:00:00,29.5313,29.77189,29.6602436363636,0.125
11/16/1998 00:00:00,30.2188,29.85314,29.7415,0.531300000000002
11/17/1998 00:00:00,30.25,29.90939,29.8136563636364,0.4375
11/18/1998 00:00:00,30.4688,29.97502,29.9153672727273,-0.531199999999998
11/19/1998 00:00:00,30.4688,29.9219,30.0051454545455,-0.281199999999998
11/20/1998 00:00:00,30.5313,29.90003,30.1159454545455,0.468800000000002
11/23/1998 00:00:00,31.2813,30.02191,30.3670854545455,2
11/24/1998 00:00:00,30.875,30.18128,30.5221927272727,1.875
11/25/1998 00:00:00,31.125,30.39378,30.6937781818182,1.9375
11/27/1998 00:00:00,31.0313,30.57816,30.8096909090909,1.5
11/30/1998 00:00:00,30.5938,30.68441,30.8125345454546,0.375
12/1/1998 00:00:00,30.4063,30.70316,30.7619690909091,0.156300000000002
12/2/1998 00:00:00,30.0625,30.68441,30.6454854545455,-0.406300000000002
12/3/1998 00:00:00,29.6875,30.60628,30.4642290909091,-0.781300000000002
12/4/1998 00:00:00,29.875,30.5469,30.3312690909091,-0.656300000000002
12/7/1998 00:00:00,30.8125,30.57502,30.37956,-0.468800000000002
12/8/1998 00:00:00,29.8438,30.43127,30.2466109090909,-1.0312
12/9/1998 00:00:00,28.9688,30.24065,29.9807072727273,-2.1562
12/10/1998 00:00:00,29.125,30.04065,29.7778618181818,-1.9063
12/11/1998 00:00:00,28.5938,29.7969,29.5147981818182,-2
12/14/1998 00:00:00,28.4375,29.58127,29.2676345454545,-1.9688
12/15/1998 00:00:00,27.875,29.32814,28.9574036363636,-2.1875
12/16/1998 00:00:00,27.75,29.09689,28.6704690909091,-1.9375
12/17/1998 00:00:00,28.7813,29.00627,28.6130890909091,-1.0937
12/18/1998 00:00:00,27.9375,28.81252,28.4187672727273,-2.875
12/21/1998 00:00:00,28.25,28.55627,28.3164909090909,-1.5938
12/22/1998 00:00:00,27.8438,28.35627,28.1869509090909,-1.125
12/23/1998 00:00:00,29.0625,28.36564,28.3153563636364,-0.0625
12/24/1998 00:00:00,29.3438,28.38752,28.4932036363636,0.75
12/28/1998 00:00:00,28.9375,28.42189,28.5932,0.5
12/29/1998 00:00:00,29.9063,28.56877,28.8630927272727,2.0313
12/30/1998 00:00:00,29.4375,28.72502,29.0210436363636,1.6875
12/31/1998 00:00:00,29.125,28.86252,29.0937672727273,0.343699999999998
1/4/1999 00:00:00,29.9375,28.97814,29.2892181818182,2
1/5/1999 00:00:00,30.4063,29.22502,29.5488836363636,2.1563
1/6/1999 00:00:00,31,29.50002,29.8716072727273,3.1562
1/7/1999 00:00:00,30.5313,29.76877,30.0591127272727,1.4688
1/8/1999 00:00:00,31.75,30.03752,30.4193363636364,2.4062
1/11/1999 00:00:00,31,30.20314,30.5943327272727,2.0625
1/12/1999 00:00:00,30.3125,30.34064,30.6142163636364,0.406199999999998
1/13/1999 00:00:00,29.1875,30.26876,30.4045545454545,-0.25
1/14/1999 00:00:00,28.875,30.21251,30.1511436363636,-0.25
1/15/1999 00:00:00,29.25,30.22501,29.9761418181818,-0.6875
1/19/1999 00:00:00,29.0625,30.13751,29.7647763636364,-1.3438
1/20/1999 00:00:00,28.2813,29.92501,29.4272836363636,-2.7187
1/21/1999 00:00:00,28.5,29.67501,29.1681909090909,-2.0313
1/22/1999 00:00:00,27.8125,29.40313,28.8295527272727,-3.9375
1/25/1999 00:00:00,27.7188,29.00001,28.5233109090909,-3.2812
1/26/1999 00:00:00,27.5,28.65001,28.2505818181818,-2.8125
1/27/1999 00:00:00,27.0625,28.32501,27.9619436363636,-2.125
1/28/1999 00:00:00,27.0313,28.10939,27.7267236363636,-1.8437
1/29/1999 00:00:00,26.875,27.90939,27.5022890909091,-2.375
2/1/1999 00:00:00,26.75,27.65939,27.2914909090909,-2.3125
2/2/1999 00:00:00,26.7188,27.42502,27.1204745454545,-1.5625
2/3/1999 00:00:00,26.5313,27.25002,26.95798,-1.9687
2/4/1999 00:00:00,26.5,27.05002,26.8216127272727,-1.3125
2/5/1999 00:00:00,27.3438,27.00315,26.8750272727273,-0.375
2/8/1999 00:00:00,27.3125,26.96252,26.9312727272727,-0.1875
2/9/1999 00:00:00,27.2188,26.9344,26.9778690909091,0.156300000000002
2/10/1999 00:00:00,27.0625,26.9344,27.00116,0.0311999999999983
2/11/1999 00:00:00,27.4688,26.97815,27.0983236363636,0.593800000000002
2/12/1999 00:00:00,27.1875,27.0094,27.1363872727273,0.4375
2/16/1999 00:00:00,26.625,26.9969,27.0664963636364,-0.0938000000000017
2/17/1999 00:00:00,26.0625,26.93127,26.8966054545455,-0.468800000000002
2/18/1999 00:00:00,25.375,26.81564,26.6136472727273,-1.125
2/19/1999 00:00:00,25.4688,26.71252,26.3687672727273,-1.875
2/22/1999 00:00:00,25.7188,26.55002,26.1880909090909,-1.5937
2/23/1999 00:00:00,26.1563,26.4344,26.1165054545455,-1.0625
2/24/1999 00:00:00,26.2188,26.3344,26.0773054545455,-0.843699999999998
2/25/1999 00:00:00,25.9688,26.22503,26.0108327272727,-1.5
2/26/1999 00:00:00,26.0313,26.08128,25.9756090909091,-1.1562
3/1/1999 00:00:00,25.7813,25.94066,25.9210672727273,-0.843699999999998
3/2/1999 00:00:00,25.75,25.85316,25.8864018181818,-0.3125
3/3/1999 00:00:00,25.4063,25.78754,25.8051545454545,0.0313000000000017
3/4/1999 00:00:00,25.9063,25.84067,25.8267472727273,0.4375
3/5/1999 00:00:00,26.6875,25.96254,25.9807163636364,0.968699999999998
3/8/1999 00:00:00,26.3438,26.02504,26.0500363636364,0.1875
3/9/1999 00:00:00,26.3125,26.04066,26.1023018181818,0.0936999999999983
3/10/1999 00:00:00,26.8125,26.10003,26.2426363636364,0.843699999999998
3/11/1999 00:00:00,26,26.10315,26.2244490909091,-0.0313000000000017
3/12/1999 00:00:00,26.5625,26.15627,26.3079672727273,0.781199999999998
3/15/1999 00:00:00,26.5313,26.23127,26.3761545454546,0.781300000000002
3/16/1999 00:00:00,26.2813,26.2844,26.3852509090909,0.875
3/17/1999 00:00:00,25.5625,26.30002,26.2539963636364,-0.343800000000002
3/18/1999 00:00:00,25.9688,26.30627,26.1937745454545,-0.718699999999998
3/19/1999 00:00:00,25.5313,26.19065,26.0528709090909,-0.8125
3/22/1999 00:00:00,25.5,26.10627,25.9272981818182,-0.8125
3/23/1999 00:00:00,24.8438,25.9594,25.6977581818182,-1.9687
3/24/1999 00:00:00,24.875,25.76565,25.5005945454545,-1.125
3/25/1999 00:00:00,25.5313,25.71878,25.4579854545455,-1.0312
3/26/1999 00:00:00,25.25,25.58753,25.3727527272727,-1.2813
3/29/1999 00:00:00,26.0313,25.53753,25.4534381818182,-0.25
3/30/1999 00:00:00,26,25.5094,25.5375236363636,0.4375
3/31/1999 00:00:00,25.625,25.51565,25.5585418181818,-0.343800000000002
4/1/1999 00:00:00,24.9688,25.41565,25.4591145454545,-0.5625
4/5/1999 00:00:00,25.5,25.41252,25.4744509090909,0
4/6/1999 00:00:00,24.9063,25.35315,25.3824109090909,0.0625
4/7/1999 00:00:00,24.9375,25.36252,25.3068381818182,0.0625
4/8/1999 00:00:00,25.0625,25.38127,25.2522890909091,-0.468800000000002
4/9/1999 00:00:00,24.0313,25.23127,25.00684,-1.2187
4/12/1999 00:00:00,24.6875,25.17502,24.9079727272727,-1.3438
4/13/1999 00:00:00,25.4063,25.11252,24.9500236363636,-0.593699999999998
4/14/1999 00:00:00,26.9688,25.2094,25.2875290909091,1.3438
4/15/1999 00:00:00,29.5,25.5969,26.0676381818182,4.5312
4/16/1999 00:00:00,29.2813,26.02815,26.7375290909091,3.7813
4/19/1999 00:00:00,31.1875,26.5969,27.6755927272727,6.2812
4/20/1999 00:00:00,30.25,27.13127,28.3397927272727,5.3125
4/21/1999 00:00:00,29.8125,27.61877,28.8272890909091,4.75
4/22/1999 00:00:00,29.0938,28.0219,29.0954763636364,5.0625
4/23/1999 00:00:00,29.7813,28.5969,29.4153672727273,5.0938
4/26/1999 00:00:00,29.5938,29.08753,29.5966218181818,4.1875
4/27/1999 00:00:00,29.75,29.5219,29.7170709090909,2.7812
4/28/1999 00:00:00,30.9375,29.91877,29.9744527272727,1.4375
4/29/1999 00:00:00,32.5,30.21877,30.4437672727273,3.2187
4/30/1999 00:00:00,32.4688,30.53752,30.8528636363636,1.2813
5/3/1999 00:00:00,34.1563,30.8344,31.5108236363636,3.9063
5/4/1999 00:00:00,33.3125,31.14065,31.9613872727273,3.5
5/5/1999 00:00:00,33.6563,31.52503,32.4187781818182,4.5625
5/6/1999 00:00:00,34.6875,32.0844,32.9937727272727,4.9062
5/7/1999 00:00:00,34.7188,32.57815,33.4727545454545,5.125
5/10/1999 00:00:00,34.5,33.06877,33.8221818181818,4.75
5/11/1999 00:00:00,34.3125,33.52502,34.0483145454545,3.375
5/12/1999 00:00:00,34.5625,33.88752,34.2369472727273,2.0625
5/13/1999 00:00:00,34.8438,34.1219,34.4108163636364,2.375
5/14/1999 00:00:00,34.6875,34.34377,34.5136527272727,0.531199999999998
5/17/1999 00:00:00,33.875,34.31564,34.4284218181818,0.5625
5/18/1999 00:00:00,33.0313,34.28752,34.1949054545455,-0.625
5/19/1999 00:00:00,32.5938,34.18127,33.8869563636364,-2.0937
5/20/1999 00:00:00,32.0938,33.9219,33.5074163636364,-2.625
5/21/1999 00:00:00,31.8438,33.6344,33.12958,-2.6562
5/24/1999 00:00:00,31.75,33.3594,32.7869618181818,-2.5625
5/25/1999 00:00:00,31.7188,33.10003,32.4886709090909,-2.8437
5/26/1999 00:00:00,31.1875,32.76253,32.1409381818182,-3.6563
5/27/1999 00:00:00,30.3438,32.31253,31.7011690909091,-4.3437
5/28/1999 00:00:00,30.3438,31.87816,31.3432181818182,-3.5312
6/1/1999 00:00:00,31.7188,31.66254,31.3142436363636,-1.3125
6/2/1999 00:00:00,31.3438,31.49379,31.2562909090909,-1.25
6/3/1999 00:00:00,31.5,31.38441,31.25742,-0.593800000000002
6/4/1999 00:00:00,32.0625,31.38128,31.3807090909091,0.218699999999998
6/7/1999 00:00:00,31.7813,31.37503,31.45344,0.0313000000000017
6/8/1999 00:00:00,31.4688,31.34691,31.4704890909091,-0.25
6/9/1999 00:00:00,30.5938,31.23441,31.33356,-0.593699999999998
6/10/1999 00:00:00,30.8438,31.20004,31.26254,0.5
6/11/1999 00:00:00,30.8125,31.24691,31.1920781818182,0.468699999999998
6/14/1999 00:00:00,32.0938,31.42191,31.3460581818182,0.375
6/15/1999 00:00:00,32.0625,31.45628,31.4625290909091,0.718699999999998
6/16/1999 00:00:00,32.0313,31.52503,31.5670781818182,0.531300000000002
6/17/1999 00:00:00,31.7188,31.54691,31.6023090909091,-0.343699999999998
6/18/1999 00:00:00,31.75,31.51566,31.6392345454545,-0.0313000000000017
6/21/1999 00:00:00,31.2188,31.45941,31.58526,-0.25
6/22/1999 00:00:00,30.8438,31.39691,31.4733309090909,0.25
6/23/1999 00:00:00,32.0313,31.54066,31.5886745454545,1.1875
6/24/1999 00:00:00,30.875,31.54378,31.4676454545455,0.0625
6/25/1999 00:00:00,30.8438,31.54691,31.3403763636364,-1.25
6/28/1999 00:00:00,30.7813,31.41566,31.2011745454545,-1.2812
6/29/1999 00:00:00,30.4063,31.25004,31.0176545454545,-1.625
6/30/1999 00:00:00,29.5313,31.00004,30.7051563636364,-2.1875
7/1/1999 00:00:00,30,30.82816,30.5233309090909,-1.75
7/2/1999 00:00:00,30.4063,30.69379,30.4466290909091,-0.8125
7/6/1999 00:00:00,29.9688,30.56879,30.3148127272727,-0.875
7/7/1999 00:00:00,30,30.48441,30.2113963636364,-2.0313
7/8/1999 00:00:00,30.125,30.29378,30.1460490909091,-0.75
7/9/1999 00:00:00,30.7188,30.27816,30.2233254545455,-0.125
7/12/1999 00:00:00,30.3438,30.22816,30.23526,-0.4375
7/13/1999 00:00:00,30.1875,30.16878,30.2278672727273,-0.218800000000002
7/14/1999 00:00:00,29.625,30.09065,30.1289981818182,0.0936999999999983
7/15/1999 00:00:00,30.125,30.15002,30.1352436363636,0.125
7/16/1999 00:00:00,30.6875,30.21877,30.2329672727273,0.281199999999998
7/19/1999 00:00:00,30.3438,30.21252,30.2557,0.375
7/20/1999 00:00:00,30.0938,30.22502,30.2341145454545,0.0938000000000017
7/21/1999 00:00:00,29.8125,30.20627,30.1591109090909,-0.3125
7/22/1999 00:00:00,30.5938,30.25315,30.2295709090909,-0.125
7/23/1999 00:00:00,29.6875,30.15002,30.1267254545455,-0.656300000000002
7/26/1999 00:00:00,30.0938,30.12502,30.1165036363636,-0.0936999999999983
7/27/1999 00:00:00,30.0938,30.11565,30.1108272727273,0.468800000000002
7/28/1999 00:00:00,30.25,30.17815,30.1352545454545,0.125
7/29/1999 00:00:00,29.9375,30.1594,30.0915,-0.75
7/30/1999 00:00:00,29.8125,30.0719,30.0284272727273,-0.531300000000002
8/2/1999 00:00:00,30.5625,30.09377,30.1176272727273,0.468699999999998
8/3/1999 00:00:00,30.5313,30.13752,30.1971781818182,0.718800000000002
8/4/1999 00:00:00,30.7188,30.22815,30.3028654545455,0.125
8/5/1999 00:00:00,31.0625,30.27502,30.4545654545455,1.375
8/6/1999 00:00:00,31.375,30.44377,30.6545618181818,1.2812
8/9/1999 00:00:00,31.3125,30.56564,30.8125127272727,1.2187
8/10/1999 00:00:00,30.6563,30.62189,30.8289963636364,0.406300000000002
8/11/1999 00:00:00,31.625,30.75939,31.01138,1.6875
8/12/1999 00:00:00,31.0313,30.86877,31.0608181818182,1.2188
8/13/1999 00:00:00,31.1563,31.00315,31.1130963636364,0.593800000000002
8/16/1999 00:00:00,31.0625,31.05315,31.1238872727273,0.531199999999998
8/17/1999 00:00:00,31.5313,31.15315,31.2108236363636,0.8125
8/18/1999 00:00:00,31.5313,31.2344,31.2795781818182,0.468800000000002
8/19/1999 00:00:00,31.6563,31.29378,31.3562872727273,0.281300000000002
8/20/1999 00:00:00,32.8125,31.43753,31.6324181818182,1.5
8/23/1999 00:00:00,33.5,31.65628,32.0074127272727,2.8437
8/24/1999 00:00:00,32.4063,31.83128,32.14378,0.781300000000002
8/25/1999 00:00:00,31.9688,31.86566,32.1687836363636,0.9375
8/26/1999 00:00:00,31.4375,31.90628,32.0909363636364,0.281199999999998
8/27/1999 00:00:00,31.4688,31.93753,32.0113945454545,0.406300000000002
8/30/1999 00:00:00,30.7188,31.90316,31.7898072727273,-0.8125
8/31/1999 00:00:00,30.0313,31.75316,31.4494690909091,-1.5
9/1/1999 00:00:00,30.5938,31.65941,31.2386763636364,-1.0625
9/2/1999 00:00:00,31.1875,31.61253,31.1528745454545,-1.625
9/3/1999 00:00:00,31.5938,31.49066,31.1494690909091,-1.9062
9/7/1999 00:00:00,31.625,31.30316,31.1738945454545,-0.781300000000002
9/8/1999 00:00:00,31.8125,31.24378,31.2665018181818,-0.156300000000002
9/9/1999 00:00:00,31.4688,31.19378,31.3074145454545,0.0313000000000017
9/10/1999 00:00:00,32.0625,31.25628,31.4653636363636,0.593699999999998
9/13/1999 00:00:00,32.375,31.3469,31.6687672727273,1.6562
9/14/1999 00:00:00,31.6875,31.44377,31.7306945454545,1.6562
9/15/1999 00:00:00,31.4688,31.58752,31.7352454545455,0.875
9/16/1999 00:00:00,31.25,31.65314,31.6738781818182,0.0625
9/17/1999 00:00:00,31.0938,31.64377,31.57218,-0.5
9/20/1999 00:00:00,31.5313,31.63752,31.5517309090909,-0.0936999999999983
9/21/1999 00:00:00,30.8125,31.55627,31.4017272727273,-1
9/22/1999 00:00:00,30.3125,31.40627,31.1755872727273,-1.1563
9/23/1999 00:00:00,29.6875,31.22814,30.8630836363636,-2.375
9/24/1999 00:00:00,29.2188,30.94377,30.4977490909091,-3.1562
9/27/1999 00:00:00,29.5,30.65627,30.2352454545455,-2.1875
9/28/1999 00:00:00,28.7813,30.36565,29.8943418181818,-2.6875
9/29/1999 00:00:00,29.125,30.13127,29.6687690909091,-2.125
9/30/1999 00:00:00,30,30.00627,29.6449018181818,-1.0938
10/1/1999 00:00:00,29.9063,29.88752,29.6267254545455,-1.625
10/4/1999 00:00:00,30.5,29.78439,29.7380854545455,-0.3125
10/5/1999 00:00:00,29.9063,29.69377,29.7602509090909,-0.406199999999998
10/6/1999 00:00:00,29.6563,29.62815,29.7534381818182,-0.0311999999999983
10/7/1999 00:00:00,30.6875,29.72815,29.9460472727273,1.4687
10/8/1999 00:00:00,31.0938,29.91565,30.1943472727273,1.5938
10/11/1999 00:00:00,30.4063,30.00628,30.2835563636364,1.625
10/12/1999 00:00:00,29.9688,30.12503,30.2767418181818,0.843800000000002
10/13/1999 00:00:00,29.2188,30.13441,30.1119727272727,-0.781199999999998
10/14/1999 00:00:00,29.0625,30.04066,29.91708,-0.843800000000002
10/15/1999 00:00:00,28.5,29.90003,29.63696,-2
10/18/1999 00:00:00,29.2188,29.77191,29.5131,-0.6875
10/19/1999 00:00:00,28.8438,29.66566,29.3443527272727,-0.8125
10/20/1999 00:00:00,28.5,29.55003,29.1324145454545,-2.1875
10/21/1999 00:00:00,28.5625,29.33753,28.9528636363636,-2.5313
10/22/1999 00:00:00,28.7188,29.10003,28.8403672727273,-1.6875
10/25/1999 00:00:00,29.125,28.9719,28.8449072727273,-0.843800000000002
10/26/1999 00:00:00,29.25,28.90002,28.8954709090909,0.0311999999999983
10/27/1999 00:00:00,29.5625,28.93439,29.0159218181818,0.5
10/28/1999 00:00:00,29.9375,29.02189,29.1983054545455,1.4375
10/29/1999 00:00:00,30.3125,29.20314,29.4329618181818,1.0937
11/1/1999 00:00:00,29.875,29.26876,29.5551181818182,1.0312
11/2/1999 00:00:00,29.5313,29.33751,29.6028527272727,1.0313
11/3/1999 00:00:00,29.8438,29.47189,29.6949054545455,1.2813
11/4/1999 00:00:00,30.1875,29.63439,29.8250163636364,1.4687
11/5/1999 00:00:00,30.125,29.77501,29.9142181818182,1
11/8/1999 00:00:00,29.3438,29.79689,29.8358163636364,0.0938000000000017
11/9/1999 00:00:00,29.3438,29.80627,29.7534363636364,-0.218699999999998
11/10/1999 00:00:00,29.4688,29.7969,29.6920781818182,-0.468699999999998
11/11/1999 00:00:00,29.5313,29.75628,29.6437872727273,-0.781199999999998
11/12/1999 00:00:00,29.625,29.68753,29.6199181818182,-0.25
11/15/1999 00:00:00,30.0625,29.70628,29.6880945454546,0.531199999999998
11/16/1999 00:00:00,29.9688,29.75003,29.7358254545455,0.125
11/17/1999 00:00:00,30.25,29.79065,29.8267290909091,0.0625
11/18/1999 00:00:00,29.9688,29.76878,29.85912,-0.156199999999998
11/19/1999 00:00:00,30.0625,29.76253,29.9125236363636,0.718699999999998
11/22/1999 00:00:00,29.6875,29.7969,29.8988818181818,0.343699999999998
11/23/1999 00:00:00,28.9375,29.75627,29.7426272727273,-0.531300000000002
11/24/1999 00:00:00,29.2188,29.73127,29.6449054545455,-0.3125
11/26/1999 00:00:00,28.9063,29.66877,29.4949109090909,-0.718699999999998
11/29/1999 00:00:00,28.625,29.56877,29.3051345454545,-1.4375
11/30/1999 00:00:00,29.2813,29.49065,29.2528672727273,-0.6875
12/1/1999 00:00:00,28.9063,29.3844,29.1466218181818,-1.3437
12/2/1999 00:00:00,29.5,29.3094,29.16764,-0.468800000000002
12/3/1999 00:00:00,30.1563,29.32815,29.3216218181818,0.0938000000000017
12/6/1999 00:00:00,29.2188,29.24378,29.30174,-0.468699999999998
12/7/1999 00:00:00,28.4375,29.11878,29.1551436363636,-0.5
12/8/1999 00:00:00,28.5625,29.08128,29.0540018181818,-0.656300000000002
12/9/1999 00:00:00,28.0313,28.96253,28.8630963636364,-0.875
12/10/1999 00:00:00,28.5313,28.92503,28.7846909090909,-0.0936999999999983
12/13/1999 00:00:00,28.7188,28.93441,28.7471945454545,-0.5625
12/14/1999 00:00:00,29.5,28.95628,28.8500290909091,0.593699999999998
12/15/1999 00:00:00,29.4688,29.01253,28.9432145454545,-0.0311999999999983
12/16/1999 00:00:00,29.625,29.02503,29.0545727272727,-0.531300000000002
12/17/1999 00:00:00,29.625,28.9719,29.1636581818182,0.406199999999998
12/20/1999 00:00:00,29.1563,28.96565,29.1971854545455,0.718800000000002
12/21/1999 00:00:00,28.9375,29.01565,29.1920672727273,0.375
12/22/1999 00:00:00,29.0313,29.06253,29.1949127272727,1
12/23/1999 00:00:00,29.7188,29.23128,29.3142345454545,1.1875
12/27/1999 00:00:00,29.9375,29.3719,29.4426381818182,1.2187
12/28/1999 00:00:00,30.8125,29.58127,29.7045654545455,1.3125
12/29/1999 00:00:00,31.2188,29.75315,30.0022981818182,1.75
12/30/1999 00:00:00,31.125,29.91877,30.2517254545455,1.5
12/31/1999 00:00:00,31.2813,30.0844,30.4994581818182,1.6563
1/3/2000 00:00:00,30,30.1219,30.4841127272727,0.843699999999998
1/4/2000 00:00:00,28.9688,30.10315,30.2744581818182,0.0313000000000017
1/5/2000 00:00:00,30.0625,30.21565,30.2670672727273,1.0312
1/6/2000 00:00:00,31.5,30.46252,30.5005854545455,1.7812
1/7/2000 00:00:00,32.0625,30.69689,30.7914909090909,2.125
1/10/2000 00:00:00,31.0625,30.80939,30.8579654545455,0.25
1/11/2000 00:00:00,30.9375,30.82189,30.8812581818182,-0.281300000000002
1/12/2000 00:00:00,31.4063,30.84064,30.9875145454545,0.281300000000002
1/13/2000 00:00:00,32.1875,30.94689,31.2323981818182,0.906199999999998
1/14/2000 00:00:00,31.5,30.96876,31.3329636363636,1.5
1/18/2000 00:00:00,30.75,31.04376,31.2931890909091,1.7812
1/19/2000 00:00:00,30.1563,31.16251,31.1318327272727,0.0938000000000017
1/20/2000 00:00:00,28.9375,31.05001,30.7272854545455,-2.5625
1/21/2000 00:00:00,29.3125,30.83126,30.4113745454545,-2.75
1/24/2000 00:00:00,29,30.52501,30.0784181818182,-2.0625
1/25/2000 00:00:00,28.2813,30.24689,29.6704709090909,-2.6562
1/26/2000 00:00:00,28.7188,30.02502,29.3926363636364,-2.6875
1/27/2000 00:00:00,29.0625,29.79064,29.2176327272727,-3.125
1/28/2000 00:00:00,28.3438,29.40627,28.9545709090909,-3.1562
1/31/2000 00:00:00,27.5313,29.0094,28.6136672727273,-3.2187
2/1/2000 00:00:00,28.0313,28.73753,28.4358309090909,-2.125
2/2/2000 00:00:00,27.5313,28.47503,28.2165163636364,-1.4062
2/3/2000 00:00:00,27.375,28.31878,28.0165109090909,-1.9375
2/4/2000 00:00:00,27.0313,28.09066,27.7824236363636,-1.9687
2/7/2000 00:00:00,26.1563,27.80629,27.4307218181818,-2.125
2/8/2000 00:00:00,25.9375,27.57191,27.0909418181818,-2.7813
2/9/2000 00:00:00,25.5,27.25003,26.7142309090909,-3.5625
2/10/2000 00:00:00,25.25,26.86878,26.3505890909091,-3.0938
2/11/2000 00:00:00,24.2813,26.46253,25.8801381818182,-3.25
2/14/2000 00:00:00,25.3125,26.24065,25.6710418181818,-2.7188
2/15/2000 00:00:00,26.25,26.06252,25.6727418181818,-1.2813
2/16/2000 00:00:00,26.4063,25.95002,25.7352472727273,-0.968699999999998
2/17/2000 00:00:00,26.25,25.83752,25.7897890909091,-0.781300000000002
2/18/2000 00:00:00,25.5313,25.68752,25.7341127272727,-0.625
2/22/2000 00:00:00,26.3125,25.70314,25.8477454545455,0.375
2/23/2000 00:00:00,26.6875,25.77814,26.02672,1.1875
2/24/2000 00:00:00,25.125,25.74064,25.9079672727273,-0.125
2/25/2000 00:00:00,24.5313,25.66877,25.6880872727273,0.25
2/28/2000 00:00:00,24.5313,25.69377,25.4812745454545,-0.781199999999998
2/29/2000 00:00:00,24.6875,25.63127,25.2983163636364,-1.5625
3/1/2000 00:00:00,24.1563,25.4219,25.03014,-2.25
3/2/2000 00:00:00,23.5625,25.13752,24.6920672727273,-2.6875
3/3/2000 00:00:00,24.5313,24.96565,24.5818454545455,-1
3/6/2000 00:00:00,24,24.81252,24.4062727272727,-2.3125
3/7/2000 00:00:00,23.25,24.50627,24.1221781818182,-3.4375
3/8/2000 00:00:00,23.0313,24.14065,23.8540018181818,-2.0937
3/9/2000 00:00:00,22.8125,23.9094,23.61252,-1.7188
3/10/2000 00:00:00,23.3438,23.79065,23.5096836363636,-1.1875
3/13/2000 00:00:00,22.9688,23.6344,23.3602563636364,-1.7187
3/14/2000 00:00:00,23,23.46565,23.2449109090909,-1.1563
3/15/2000 00:00:00,25.0938,23.5594,23.5409381818182,1.5313
3/16/2000 00:00:00,26.4063,23.84378,24.0585563636364,1.875
3/17/2000 00:00:00,25.0313,23.89378,24.2744690909091,1.0313
3/20/2000 00:00:00,25.5313,24.04691,24.5722,2.2813
3/21/2000 00:00:00,26.0938,24.33129,24.9443618181818,3.0625
3/22/2000 00:00:00,24.9063,24.51879,25.0489090909091,2.0938
3/23/2000 00:00:00,25.1875,24.75629,25.1704927272727,1.8437
3/24/2000 00:00:00,25.2813,24.95004,25.2659490909091,2.3125
3/27/2000 00:00:00,24.75,25.12816,25.2295781818182,1.75
3/28/2000 00:00:00,24.875,25.31566,25.1835490909091,-0.218800000000002
3/29/2000 00:00:00,25.4375,25.35003,25.2057018181818,-0.968800000000002
3/30/2000 00:00:00,26.5625,25.36565,25.4261509090909,1.5312
3/31/2000 00:00:00,26.1563,25.47815,25.5699054545455,0.625
4/3/2000 00:00:00,26.5,25.57502,25.7556963636364,0.406199999999998
4/4/2000 00:00:00,26.9063,25.65627,25.9977472727273,2
4/5/2000 00:00:00,26.3438,25.80002,26.1227527272727,1.1563
4/6/2000 00:00:00,26.4063,25.9219,26.2329854545455,1.125
4/7/2000 00:00:00,26.0313,25.9969,26.2528763636364,1.2813
4/10/2000 00:00:00,25.9688,26.11878,26.2477672727273,1.0938
4/11/2000 00:00:00,27.0313,26.33441,26.41368,1.5938
4/12/2000 00:00:00,28.5625,26.64691,26.8187872727273,2
4/13/2000 00:00:00,28.0313,26.79379,27.0704945454545,1.875
4/14/2000 00:00:00,26.5938,26.83754,27.0341327272727,0.0938000000000017
4/17/2000 00:00:00,26.625,26.85004,26.9954890909091,-0.281300000000002
4/18/2000 00:00:00,25.5938,26.71879,26.7670818181818,-0.75
4/19/2000 00:00:00,25.3125,26.61566,26.5113927272727,-1.0938
4/20/2000 00:00:00,26.5,26.62503,26.4903636363636,0.468699999999998
4/24/2000 00:00:00,27.1563,26.73753,26.5869581818182,1.1875
4/25/2000 00:00:00,27.9688,26.93753,26.8108254545455,0.9375
4/26/2000 00:00:00,27.1875,26.95315,26.8562745454545,-1.375
4/27/2000 00:00:00,26.875,26.7844,26.8420654545455,-1.1563
4/28/2000 00:00:00,27.1875,26.70002,26.9153563636364,0.593699999999998
5/1/2000 00:00:00,27.25,26.76564,27.0153527272727,0.625
5/2/2000 00:00:00,27.1875,26.82189,27.0920545454545,1.5937
5/3/2000 00:00:00,26.3125,26.89376,26.9994381818182,1
5/4/2000 00:00:00,26.6875,27.03126,26.9619363636364,0.1875
5/5/2000 00:00:00,27.5625,27.13751,27.0585254545455,0.406199999999998
5/8/2000 00:00:00,27.4375,27.16563,27.1130690909091,-0.531300000000002
5/9/2000 00:00:00,27.75,27.14375,27.2193181818182,0.5625
5/10/2000 00:00:00,27.2813,27.15313,27.2443272727273,0.406300000000002
5/11/2000 00:00:00,27.9063,27.25626,27.3812672727273,0.718800000000002
5/12/2000 00:00:00,27.5625,27.29376,27.4369472727273,0.3125
5/15/2000 00:00:00,28.4063,27.40939,27.6392272727273,1.2188
5/16/2000 00:00:00,28.3125,27.52189,27.8034290909091,2
5/17/2000 00:00:00,27.7188,27.66252,27.8392309090909,1.0313
5/18/2000 00:00:00,27.7188,27.76565,27.8494636363636,0.156300000000002
5/19/2000 00:00:00,27.5938,27.76878,27.8182181818182,0.156300000000002
5/22/2000 00:00:00,27.5938,27.78441,27.7864036363636,-0.156199999999998
5/23/2000 00:00:00,27.25,27.73441,27.6892381818182,-0.0313000000000017
5/24/2000 00:00:00,27.5,27.75628,27.6466181818182,-0.406300000000002
5/25/2000 00:00:00,25.6875,27.5344,27.2704763636364,-1.875
5/26/2000 00:00:00,25.5313,27.33128,26.9062763636364,-2.875
5/30/2000 00:00:00,25.9375,27.0844,26.6528618181818,-2.375
5/31/2000 00:00:00,24.7813,26.73128,26.2341163636364,-2.9375
6/1/2000 00:00:00,24.9375,26.45315,25.9079745454546,-2.7813
6/2/2000 00:00:00,25,26.18127,25.6437654545455,-2.5938
6/5/2000 00:00:00,24.5625,25.87814,25.3494436363636,-3.0313
6/6/2000 00:00:00,24.1875,25.53751,25.0420545454545,-3.0625
6/7/2000 00:00:00,24.0938,25.22189,24.7795618181818,-3.4062
6/8/2000 00:00:00,23.9375,24.86564,24.5460363636364,-1.75
6/9/2000 00:00:00,23.9688,24.69377,24.3829745454545,-1.5625
6/12/2000 00:00:00,24.3125,24.57189,24.3136527272727,-1.625
6/13/2000 00:00:00,23.7188,24.35002,24.1585454545455,-1.0625
6/14/2000 00:00:00,24.0625,24.27814,24.1062690909091,-0.875
6/15/2000 00:00:00,23.5,24.13439,23.9647890909091,-1.5
6/16/2000 00:00:00,23.2813,23.96252,23.8096818181818,-1.2812
6/19/2000 00:00:00,22.2813,23.7344,23.5040054545455,-1.9062
6/20/2000 00:00:00,21.75,23.49065,23.1432054545455,-2.3438
6/21/2000 00:00:00,21.0625,23.18752,22.7017236363636,-2.875
6/22/2000 00:00:00,21.5,22.94377,22.3949018181818,-2.4688
6/23/2000 00:00:00,21.5313,22.70002,22.1380890909091,-2.7812
6/26/2000 00:00:00,21.5,22.41877,21.9199036363636,-2.2188
6/27/2000 00:00:00,22.3438,22.28127,21.9062727272727,-1.7187
6/28/2000 00:00:00,22.625,22.13752,21.9687690909091,-0.875
6/29/2000 00:00:00,22.5,22.03752,22.0346745454545,-0.781300000000002
6/30/2000 00:00:00,22.1563,21.92502,22.0562709090909,-0.125
7/3/2000 00:00:00,22.9688,21.99377,22.2460490909091,1.2188
7/5/2000 00:00:00,22.4375,22.06252,22.3267272727273,1.375
7/6/2000 00:00:00,21.9688,22.15315,22.3096872727273,0.468800000000002
7/7/2000 00:00:00,21.8438,22.18753,22.2534418181818,0.3125
7/10/2000 00:00:00,21.8125,22.21565,22.1852545454545,0.3125
7/11/2000 00:00:00,22.75,22.34065,22.2824090909091,0.406199999999998
7/12/2000 00:00:00,22.4063,22.3469,22.2943454545455,-0.218699999999998
7/13/2000 00:00:00,22.9688,22.38128,22.4074181818182,0.468800000000002
7/14/2000 00:00:00,22.6563,22.39691,22.4574218181818,0.5
7/17/2000 00:00:00,21.9688,22.37816,22.3795836363636,-1
7/18/2000 00:00:00,21.8125,22.26253,22.2767363636364,-0.625
7/19/2000 00:00:00,21.3438,22.15316,22.1096945454545,-0.625
7/20/2000 00:00:00,21.0625,22.06253,21.9113927272727,-0.781300000000002
7/21/2000 00:00:00,21.4063,22.01878,21.7920781818182,-0.406199999999998
7/24/2000 00:00:00,21.2188,21.95941,21.6466272727273,-1.5312
7/25/2000 00:00:00,21.2813,21.81254,21.5233345454545,-1.125
7/26/2000 00:00:00,20.7188,21.64379,21.3244727272727,-2.25
7/27/2000 00:00:00,20.6563,21.41254,21.1449290909091,-2
7/28/2000 00:00:00,20.3438,21.18129,20.9506127272727,-1.625
7/31/2000 00:00:00,20.3438,21.01879,20.7983418181818,-1.4687
8/1/2000 00:00:00,20.3438,20.87192,20.6756163636364,-1
8/2/2000 00:00:00,20.5,20.78754,20.6079945454545,-0.5625
8/3/2000 00:00:00,20.375,20.71879,20.5329872727273,-1.0313
8/4/2000 00:00:00,20.2188,20.60004,20.44208,-1
8/7/2000 00:00:00,21.0938,20.58754,20.5318545454546,-0.1875
8/8/2000 00:00:00,21.0938,20.56879,20.6239018181818,0.375
8/9/2000 00:00:00,21.3438,20.63129,20.7648127272727,0.6875
8/10/2000 00:00:00,20.6563,20.63129,20.76936,0.3125
8/11/2000 00:00:00,21.2813,20.72504,20.8875436363636,0.9375
8/14/2000 00:00:00,21.2188,20.81254,20.9773181818182,0.875
8/15/2000 00:00:00,21.5938,20.93754,21.1193654545455,1.0938
8/16/2000 00:00:00,21.7188,21.05942,21.2614127272727,1.3438
8/17/2000 00:00:00,21.4688,21.1688,21.3358454545455,1.25
8/18/2000 00:00:00,21.5313,21.30005,21.4017545454546,0.4375
8/21/2000 00:00:00,21.25,21.31567,21.3926545454546,0.156199999999998
8/22/2000 00:00:00,21.4063,21.34692,21.4091327272727,0.0625
8/23/2000 00:00:00,21.125,21.32504,21.3687836363636,0.468699999999998
8/24/2000 00:00:00,21.0938,21.36879,21.32674,-0.1875
8/25/2000 00:00:00,21.375,21.37816,21.3278690909091,0.156199999999998
8/28/2000 00:00:00,21.3438,21.39066,21.3216218181818,-0.25
8/29/2000 00:00:00,21,21.33128,21.2505927272727,-0.718800000000002
8/30/2000 00:00:00,20.625,21.2219,21.1221781818182,-0.843800000000002
8/31/2000 00:00:00,20.25,21.10002,20.9454690909091,-1.2813
9/1/2000 00:00:00,20.25,20.97189,20.79092,-1
9/5/2000 00:00:00,20.4063,20.88752,20.6880854545455,-1
9/6/2000 00:00:00,20.8438,20.83127,20.6801363636364,-0.281199999999998
9/7/2000 00:00:00,20.25,20.74377,20.5744509090909,-0.843800000000002
9/8/2000 00:00:00,19.8125,20.61564,20.4051290909091,-1.5625
9/11/2000 00:00:00,19.9063,20.46877,20.2761581818182,-1.4375
9/12/2000 00:00:00,20,20.33439,20.1909272727273,-1
9/13/2000 00:00:00,19.875,20.22189,20.1074018181818,-0.75
9/14/2000 00:00:00,19.5625,20.11564,19.9875127272727,-0.6875
9/15/2000 00:00:00,19.0625,19.99689,19.7960327272727,-1.1875
9/18/2000 00:00:00,18.8125,19.85314,19.5806890909091,-1.5938
9/19/2000 00:00:00,18.4688,19.65939,19.3289909090909,-2.375
9/20/2000 00:00:00,18.1563,19.39064,19.0557018181818,-2.0937
9/21/2000 00:00:00,18.375,19.20314,18.87104,-1.4375
9/22/2000 00:00:00,18.5625,19.07814,18.75456,-1.3438
9/25/2000 00:00:00,18.2813,18.91564,18.60968,-1.7187
9/26/2000 00:00:00,18.0625,18.72189,18.4545636363636,-1.8125
9/27/2000 00:00:00,18.8438,18.61877,18.4767290909091,-0.718699999999998
9/28/2000 00:00:00,19.375,18.60002,18.6142254545455,0.3125
9/29/2000 00:00:00,19.8438,18.67815,18.8403672727273,1.0313
10/2/2000 00:00:00,19.7188,18.76878,19.0295763636364,1.25
10/3/2000 00:00:00,20.0938,18.93128,19.2704890909091,1.9375
10/4/2000 00:00:00,20.5625,19.1719,19.5670745454545,2.1875
10/5/2000 00:00:00,20.25,19.3594,19.7630927272727,1.6875
10/6/2000 00:00:00,20.2188,19.52503,19.9193472727273,1.9375
10/9/2000 00:00:00,20.3438,19.73128,20.0682145454545,2.2813
10/10/2000 00:00:00,20.25,19.95003,20.1625272727273,1.4062
10/11/2000 00:00:00,19.875,20.05315,20.1488854545455,0.5
10/12/2000 00:00:00,19.0625,20.0219,19.9687672727273,-0.781300000000002
10/13/2000 00:00:00,19,19.93752,19.7829672727273,-0.718800000000002
10/16/2000 00:00:00,19.3125,19.89689,19.6693272727273,-0.781300000000002
10/17/2000 00:00:00,18.8125,19.76876,19.4721654545455,-1.75
10/18/2000 00:00:00,19,19.61251,19.3323909090909,-1.25
10/19/2000 00:00:00,19.2813,19.51564,19.2721709090909,-0.9375
10/20/2000 00:00:00,18.75,19.36876,19.1329636363636,-1.5938
10/23/2000 00:00:00,18.8438,19.21876,19.0375163636364,-1.4062
10/24/2000 00:00:00,19.5625,19.15001,19.1000145454545,-0.3125
10/25/2000 00:00:00,18.9688,19.05939,19.0670672727273,-0.0936999999999983
10/26/2000 00:00:00,19.5938,19.11252,19.1642327272727,0.593800000000002
10/27/2000 00:00:00,20,19.21252,19.3255927272727,0.6875
10/30/2000 00:00:00,21.9063,19.4719,19.8153709090909,3.0938
10/31/2000 00:00:00,22.3125,19.8219,20.3318436363636,3.3125
11/1/2000 00:00:00,22.0625,20.12815,20.7392254545455,2.7812
11/2/2000 00:00:00,22.5,20.45002,21.1704709090909,3.75
11/3/2000 00:00:00,22.7188,20.8469,21.5829763636364,3.875
11/6/2000 00:00:00,22.5,21.21252,21.88354,2.9375
11/7/2000 00:00:00,22.625,21.51877,22.1403545454545,3.6562
11/8/2000 00:00:00,22.8438,21.90627,22.3812690909091,3.25
11/9/2000 00:00:00,22.5938,22.20627,22.5062745454545,2.5938
11/10/2000 00:00:00,22.1563,22.4219,22.4971890909091,0.25
11/13/2000 00:00:00,22.1875,22.45002,22.4545709090909,-0.125
11/14/2000 00:00:00,22.4375,22.46252,22.4522945454545,0.375
11/15/2000 00:00:00,22.6875,22.52502,22.4932,0.1875
11/16/2000 00:00:00,21.8438,22.4594,22.3693418181818,-0.875
11/17/2000 00:00:00,21.6563,22.35315,22.2233236363636,-0.843699999999998
11/20/2000 00:00:00,20.9688,22.20003,21.9716236363636,-1.6562
11/21/2000 00:00:00,20.875,22.02503,21.7307090909091,-1.9688
11/22/2000 00:00:00,20.75,21.81565,21.4988854545455,-1.8438
11/24/2000 00:00:00,20.875,21.64377,21.3278581818182,-1.2813
11/27/2000 00:00:00,20.75,21.50314,21.1653545454545,-1.4375
11/28/2000 00:00:00,20.5,21.33439,20.9829654545455,-1.9375
11/29/2000 00:00:00,20.75,21.16564,20.8767127272727,-1.9375
11/30/2000 00:00:00,20.8438,20.98127,20.8181963636364,-1
12/1/2000 00:00:00,21.5313,20.95002,20.9182018181818,-0.125
12/4/2000 00:00:00,22.2813,21.01252,21.1602527272727,1.3125
12/5/2000 00:00:00,22.6875,21.18439,21.4647945454545,1.8125
12/6/2000 00:00:00,22.0938,21.30627,21.6301418181818,1.3438
12/7/2000 00:00:00,21,21.33127,21.5744563636364,0.125
12/8/2000 00:00:00,21.8125,21.42502,21.6619527272727,1.0625
12/11/2000 00:00:00,21.5,21.50002,21.6755854545455,1
12/12/2000 00:00:00,21.25,21.57502,21.6301272727273,0.5
12/13/2000 00:00:00,20.6875,21.56877,21.46876,-0.156300000000002
12/14/2000 00:00:00,21.0938,21.59377,21.3824018181818,-0.4375
12/15/2000 00:00:00,20.7188,21.51252,21.2233163636364,-1.5625
12/18/2000 00:00:00,21.0938,21.39377,21.1471854545455,-1.5937
12/19/2000 00:00:00,21.8125,21.30627,21.2233181818182,-0.281300000000002
12/20/2000 00:00:00,21.2188,21.21877,21.2074145454545,0.218800000000002
12/21/2000 00:00:00,21.75,21.29377,21.3040018181818,-0.0625
12/22/2000 00:00:00,22.625,21.37502,21.5460436363636,1.125
12/26/2000 00:00:00,22.5313,21.47815,21.7562763636364,1.2813
12/27/2000 00:00:00,23.4063,21.69378,22.1068490909091,2.7188
12/28/2000 00:00:00,23.6563,21.99066,22.4636709090909,2.5625
12/29/2000 00:00:00,23.1563,22.19691,22.6756054545455,2.4375
1/2/2001 00:00:00,22.7188,22.39691,22.7704945454545,1.625
1/3/2001 00:00:00,22.75,22.56253,22.8346927272727,0.9375
1/4/2001 00:00:00,24.375,22.81878,23.1642327272727,3.1562
1/5/2001 00:00:00,24,23.0969,23.379,2.25
1/8/2001 00:00:00,24.2813,23.35003,23.5943454545455,1.6563
1/9/2001 00:00:00,23.4063,23.42816,23.6045763636364,0.875
1/10/2001 00:00:00,23.125,23.48753,23.5494563636364,-0.281300000000002
1/11/2001 00:00:00,22.4375,23.39065,23.3585418181818,-1.2188
1/12/2001 00:00:00,22.4375,23.26877,23.1852418181818,-0.718800000000002
1/16/2001 00:00:00,23.0313,23.25627,23.1420654545455,0.3125
1/17/2001 00:00:00,22.4688,23.23127,22.9988890909091,-0.281199999999998
1/18/2001 00:00:00,22.5,23.20627,22.8659309090909,-1.875
1/19/2001 00:00:00,21.9688,22.96565,22.6409363636364,-2.0312
1/22/2001 00:00:00,22.1875,22.7844,22.4994545454545,-2.0938
1/23/2001 00:00:00,22.3125,22.58752,22.4136545454545,-1.0938
1/24/2001 00:00:00,22.5625,22.50314,22.4091054545455,-0.5625
1/25/2001 00:00:00,22.9688,22.48752,22.4937709090909,0.531300000000002
1/26/2001 00:00:00,22.5938,22.50315,22.5130945454546,0.156300000000002
1/29/2001 00:00:00,22.725,22.5319,22.5534309090909,-0.3063
1/30/2001 00:00:00,22.9,22.51877,22.6203581818182,0.431199999999997
1/31/2001 00:00:00,23.09,22.58089,22.7242181818182,0.59
2/1/2001 00:00:00,23.425,22.67339,22.8776927272727,1.4562
2/2/2001 00:00:00,23.84,22.86051,23.0898036363636,1.6525
2/5/2001 00:00:00,24.625,23.10426,23.41062,2.3125
2/6/2001 00:00:00,24.87,23.36001,23.7316636363636,2.3075
2/7/2001 00:00:00,24.48,23.55176,23.9352981818182,1.5112
2/8/2001 00:00:00,24.845,23.73938,24.1704327272727,2.2512
2/9/2001 00:00:00,24.825,23.9625,24.3678181818182,2.1
2/12/2001 00:00:00,25.14,24.204,24.5819090909091,2.24
2/13/2001 00:00:00,25.095,24.4235,24.7439090909091,2.005
2/14/2001 00:00:00,25.175,24.632,24.8805454545455,1.75
2/15/2001 00:00:00,25.5,24.8395,25.0383636363636,1.66
2/16/2001 00:00:00,24.8,24.9355,25.0311818181818,0.175000000000001
2/20/2001 00:00:00,24.995,24.9725,25.042,0.125
2/21/2001 00:00:00,24.72,24.9575,24.9960909090909,0.239999999999998
2/22/2001 00:00:00,24.97,25.0065,24.9983636363636,0.125
2/23/2001 00:00:00,24.75,24.997,24.9517272727273,-0.0749999999999993
2/26/2001 00:00:00,25.585,25.073,25.0586363636364,0.445
2/27/2001 00:00:00,25.42,25.101,25.1217272727273,0.325000000000003
2/28/2001 00:00:00,25.55,25.1465,25.2033636363636,0.375
3/1/2001 00:00:00,25.59,25.188,25.284,0.0899999999999999
3/2/2001 00:00:00,26.19,25.257,25.4661818181818,1.39
3/5/2001 00:00:00,26.7,25.447,25.7285454545455,1.705
3/6/2001 00:00:00,26.7,25.6175,25.9563636363636,1.98
3/7/2001 00:00:00,27.455,25.891,26.2904545454545,2.485
3/8/2001 00:00:00,27.74,26.168,26.6266363636364,2.99
3/9/2001 00:00:00,27.75,26.468,26.9142727272727,2.165
3/12/2001 00:00:00,27.35,26.6445,27.0746363636364,1.93
3/13/2001 00:00:00,26.33,26.7355,27.0174545454545,0.779999999999998
3/14/2001 00:00:00,25.57,26.7375,26.8055454545455,-0.0199999999999996
3/15/2001 00:00:00,25.37,26.7155,26.5569090909091,-0.82
3/16/2001 00:00:00,24.95,26.5915,26.2359090909091,-1.75
3/19/2001 00:00:00,25.57,26.4785,26.0501818181818,-1.13
3/20/2001 00:00:00,25.26,26.3345,25.8286363636364,-2.195
3/21/2001 00:00:00,24.475,26.0365,25.4905454545455,-3.265
3/22/2001 00:00:00,23.555,25.618,25.0393636363636,-4.195
3/23/2001 00:00:00,22.98,25.141,24.5597272727273,-4.37
3/26/2001 00:00:00,23.295,24.7355,24.2240909090909,-3.035
3/27/2001 00:00:00,23.475,24.45,23.9949090909091,-2.095
3/28/2001 00:00:00,23.49,24.242,23.8203636363636,-1.88
3/29/2001 00:00:00,23.19,24.024,23.6290909090909,-1.76
3/30/2001 00:00:00,23.045,23.8335,23.4510909090909,-2.525
4/2/2001 00:00:00,23.7,23.6465,23.4268181818182,-1.56
4/3/2001 00:00:00,22.9,23.4105,23.2910909090909,-1.575
4/4/2001 00:00:00,23.935,23.3565,23.3864545454545,0.379999999999999
4/5/2001 00:00:00,24.575,23.4585,23.608,1.595
4/6/2001 00:00:00,24.01,23.5615,23.7082727272727,0.715
4/9/2001 00:00:00,24.215,23.6535,23.8270909090909,0.739999999999998
4/10/2001 00:00:00,25.16,23.822,24.101,1.67
4/11/2001 00:00:00,24.97,23.97,24.3097272727273,1.78
4/12/2001 00:00:00,25.125,24.1635,24.5197272727273,2.08
4/16/2001 00:00:00,25.075,24.3665,24.6854545454545,1.375
4/17/2001 00:00:00,25.095,24.506,24.8179090909091,2.195
4/18/2001 00:00:00,26.02,24.818,25.0931818181818,2.085
4/19/2001 00:00:00,26.32,25.0565,25.3662727272727,1.745
4/20/2001 00:00:00,26.425,25.2415,25.6150909090909,2.415
4/23/2001 00:00:00,26.39,25.4795,25.8239090909091,2.175
4/24/2001 00:00:00,26.435,25.7015,25.9976363636364,1.275
4/25/2001 00:00:00,26.7,25.8555,26.1791818181818,1.73
4/26/2001 00:00:00,27.17,26.0755,26.4181818181818,2.045
4/27/2001 00:00:00,26.855,26.2485,26.5599090909091,1.78
4/30/2001 00:00:00,26.575,26.3985,26.6192727272727,1.48
5/1/2001 00:00:00,26.575,26.5465,26.6513636363636,0.555
5/2/2001 00:00:00,27.04,26.6485,26.7410909090909,0.719999999999999
5/3/2001 00:00:00,27.025,26.719,26.8095454545455,0.599999999999998
5/4/2001 00:00:00,27.57,26.8335,26.9642727272727,1.18
5/7/2001 00:00:00,27.365,26.931,27.0609090909091,0.93
5/8/2001 00:00:00,27.465,27.034,27.158,0.765000000000001
5/9/2001 00:00:00,27.56,27.12,27.2536363636364,0.389999999999997
5/10/2001 00:00:00,27.88,27.191,27.3918181818182,1.025
5/11/2001 00:00:00,27.69,27.2745,27.4825454545455,1.115
5/14/2001 00:00:00,28.19,27.436,27.649,1.615
5/15/2001 00:00:00,28.39,27.6175,27.8224545454545,1.35
5/16/2001 00:00:00,29.61,27.8745,28.1847272727273,2.585
5/17/2001 00:00:00,29.555,28.1275,28.4902727272727,1.985
5/18/2001 00:00:00,29.495,28.32,28.7389090909091,2.13
5/21/2001 00:00:00,29.77,28.5605,29.0025454545455,2.305
5/22/2001 00:00:00,29.65,28.779,29.2006363636364,2.09
5/23/2001 00:00:00,29.075,28.9305,29.2544545454545,1.195
5/24/2001 00:00:00,27.925,28.935,29.0716363636364,0.234999999999999
5/25/2001 00:00:00,27.89,28.955,28.8816363636364,-0.300000000000001
5/29/2001 00:00:00,28.115,28.9475,28.7289090909091,-0.275000000000002
5/30/2001 00:00:00,27.745,28.883,28.5102727272727,-1.865
5/31/2001 00:00:00,27.8,28.702,28.3133636363636,-1.755
6/1/2001 00:00:00,27.39,28.4855,28.0748181818182,-2.105
6/4/2001 00:00:00,27.545,28.2905,27.9038181818182,-2.225
6/5/2001 00:00:00,27.745,28.088,27.8046363636364,-1.905
6/6/2001 00:00:00,27.595,27.8825,27.715,-1.48
6/7/2001 00:00:00,27.685,27.7435,27.6790909090909,-0.240000000000002
6/8/2001 00:00:00,27.375,27.6885,27.6120909090909,-0.515000000000001
6/11/2001 00:00:00,27.085,27.608,27.5023636363636,-1.03
6/12/2001 00:00:00,27.045,27.501,27.4,-0.699999999999999
6/13/2001 00:00:00,27.145,27.441,27.3352727272727,-0.655000000000001
6/14/2001 00:00:00,26.42,27.303,27.1496363636364,-0.969999999999999
6/15/2001 00:00:00,26.085,27.1725,26.9281818181818,-1.46
6/18/2001 00:00:00,26.02,27.02,26.7186363636364,-1.725
6/19/2001 00:00:00,26.445,26.89,26.6140909090909,-1.15
6/20/2001 00:00:00,26.595,26.79,26.5604545454545,-1.09
6/21/2001 00:00:00,26.365,26.658,26.4831818181818,-1.01
6/22/2001 00:00:00,25.75,26.4955,26.3180909090909,-1.335
6/25/2001 00:00:00,25.625,26.3495,26.1598181818182,-1.42
6/26/2001 00:00:00,25.88,26.233,26.0744545454545,-1.265
6/27/2001 00:00:00,25.98,26.1165,26.0284545454545,-0.440000000000001
6/28/2001 00:00:00,25.925,26.067,25.9936363636364,-0.16
6/29/2001 00:00:00,26.285,26.087,26.0332727272727,0.265000000000001
7/2/2001 00:00:00,26.505,26.1355,26.1092727272727,0.0599999999999987
7/3/2001 00:00:00,26.31,26.122,26.141,-0.285
7/5/2001 00:00:00,26.535,26.116,26.2160909090909,0.170000000000002
7/6/2001 00:00:00,25.89,26.0685,26.175,0.140000000000001
7/9/2001 00:00:00,26.43,26.1365,26.2407272727273,0.805
7/10/2001 00:00:00,26.075,26.1815,26.2295454545455,0.195
7/11/2001 00:00:00,26.17,26.2105,26.2274545454545,0.190000000000001
7/12/2001 00:00:00,26.825,26.295,26.3391818181818,0.899999999999999
7/13/2001 00:00:00,26.48,26.3505,26.3728181818182,0.195
7/16/2001 00:00:00,26.135,26.3355,26.3336363636364,-0.369999999999997
7/17/2001 00:00:00,26.175,26.3025,26.3044545454545,-0.134999999999998
7/18/2001 00:00:00,26.795,26.351,26.394,0.260000000000002
7/19/2001 00:00:00,27.325,26.43,26.5710909090909,1.435
7/20/2001 00:00:00,27.27,26.568,26.7238181818182,0.84
7/23/2001 00:00:00,26.71,26.596,26.7496363636364,0.635000000000002
7/24/2001 00:00:00,25.925,26.581,26.6276363636364,-0.245000000000001
7/25/2001 00:00:00,26.975,26.6615,26.6992727272727,0.150000000000002
7/26/2001 00:00:00,26.9,26.669,26.7426363636364,0.419999999999998
7/27/2001 00:00:00,27.005,26.7215,26.8037272727273,0.869999999999997
7/30/2001 00:00:00,26.675,26.7755,26.7952727272727,0.5
7/31/2001 00:00:00,27.475,26.9055,26.9224545454545,0.68
8/1/2001 00:00:00,27.315,26.9575,26.9969090909091,-0.00999999999999801
8/2/2001 00:00:00,27.74,26.999,27.1391818181818,0.469999999999999
8/3/2001 00:00:00,27.71,27.043,27.2684545454545,1
8/6/2001 00:00:00,27.6,27.132,27.3697272727273,1.675
8/7/2001 00:00:00,27.645,27.304,27.463,0.669999999999998
8/8/2001 00:00:00,27.095,27.316,27.425,0.195
8/9/2001 00:00:00,26.985,27.3245,27.3648181818182,-0.0199999999999996
8/10/2001 00:00:00,27.265,27.3505,27.354,0.59
8/13/2001 00:00:00,27.385,27.4215,27.3602727272727,-0.0899999999999999
8/14/2001 00:00:00,27.445,27.4185,27.3645454545455,0.129999999999999
8/15/2001 00:00:00,27.11,27.398,27.3084545454545,-0.629999999999999
8/16/2001 00:00:00,27.04,27.328,27.2433636363636,-0.670000000000002
8/17/2001 00:00:00,26.625,27.2195,27.1155454545455,-0.975000000000001
8/20/2001 00:00:00,26.25,27.0845,26.9392727272727,-1.395
8/21/2001 00:00:00,26.455,26.9655,26.8248181818182,-0.640000000000001
8/22/2001 00:00:00,26.735,26.9295,26.7829090909091,-0.25
8/23/2001 00:00:00,26.755,26.9065,26.7511818181818,-0.510000000000002
8/24/2001 00:00:00,27.39,26.919,26.8390909090909,0.00499999999999901
8/27/2001 00:00:00,27.425,26.923,26.9310909090909,-0.0199999999999996
8/28/2001 00:00:00,27.035,26.882,26.9514545454545,-0.0749999999999993
8/29/2001 00:00:00,26.665,26.8375,26.912,-0.375
8/30/2001 00:00:00,26.435,26.777,26.8388181818182,-0.190000000000001
8/31/2001 00:00:00,27.06,26.8205,26.8902727272727,0.809999999999999
9/4/2001 00:00:00,27.51,26.9465,27.0156363636364,1.055
9/5/2001 00:00:00,27.435,27.0445,27.1044545454545,0.699999999999999
9/6/2001 00:00:00,27.105,27.0815,27.1154545454546,0.350000000000001
9/7/2001 00:00:00,25.935,26.9995,26.907,-1.455
9/10/2001 00:00:00,25.44,26.8045,26.6234545454545,-1.985
9/17/2001 00:00:00,22.55,26.317,25.8499090909091,-4.485
9/18/2001 00:00:00,22.5,25.8635,25.1559090909091,-4.165
9/19/2001 00:00:00,22.31,25.428,24.5098181818182,-4.125
9/20/2001 00:00:00,20.965,24.881,23.6983636363636,-6.095
9/21/2001 00:00:00,20.355,24.2105,22.8754545454545,-7.155
9/24/2001 00:00:00,21.5,23.6095,22.3826363636364,-5.935
9/25/2001 00:00:00,21.54,23.02,22.0063636363636,-5.565
9/26/2001 00:00:00,21.25,22.4345,21.6845454545455,-4.685
9/27/2001 00:00:00,21.525,21.9935,21.5191818181818,-3.915
9/28/2001 00:00:00,22.875,21.737,21.6794545454545,0.324999999999999
10/1/2001 00:00:00,22.77,21.759,21.8672727272727,0.27
10/2/2001 00:00:00,23.065,21.8155,22.1047272727273,0.755000000000003
10/3/2001 00:00:00,23.68,21.9525,22.4437272727273,2.715
10/4/2001 00:00:00,23.505,22.2065,22.726,3.15
10/5/2001 00:00:00,23.75,22.546,23.0066363636364,2.25
10/8/2001 00:00:00,23.155,22.7115,23.1173636363636,1.615
10/9/2001 00:00:00,23.5,22.9075,23.2607272727273,2.25
10/10/2001 00:00:00,24.15,23.1975,23.4866363636364,2.625
10/11/2001 00:00:00,25.34,23.579,23.8761818181818,2.465
10/12/2001 00:00:00,24.82,23.7735,24.1018181818182,2.05
10/15/2001 00:00:00,24.705,23.967,24.2711818181818,1.64
10/16/2001 00:00:00,24.915,24.152,24.4435454545455,1.235
10/17/2001 00:00:00,24.575,24.2415,24.5204545454545,1.07
10/18/2001 00:00:00,24.27,24.318,24.5256363636364,0.52
10/19/2001 00:00:00,24.21,24.364,24.506,1.055
10/22/2001 00:00:00,25.15,24.5635,24.6489090909091,1.65
10/23/2001 00:00:00,25.1,24.7235,24.7464545454545,0.950000000000003
10/24/2001 00:00:00,25,24.8085,24.7967272727273,-0.34
10/25/2001 00:00:00,25.425,24.817,24.9088181818182,0.605
10/26/2001 00:00:00,25.62,24.897,25.0548181818182,0.915000000000003
10/29/2001 00:00:00,24.925,24.919,25.0599090909091,0.0100000000000016
10/30/2001 00:00:00,24.335,24.861,24.9537272727273,-0.239999999999998
10/31/2001 00:00:00,24.415,24.845,24.8726363636364,0.145
11/1/2001 00:00:00,24.995,24.9175,24.8999090909091,0.785
11/2/2001 00:00:00,25.725,25.069,25.0467272727273,0.575000000000003
11/5/2001 00:00:00,25.78,25.132,25.176,0.68
11/6/2001 00:00:00,26.365,25.2585,25.4001818181818,1.365
11/7/2001 00:00:00,26.11,25.3695,25.555,0.684999999999999
11/8/2001 00:00:00,25.88,25.415,25.6478181818182,0.259999999999998
11/9/2001 00:00:00,26.06,25.459,25.7650909090909,1.135
11/12/2001 00:00:00,25.525,25.519,25.7770909090909,1.19
11/13/2001 00:00:00,26.41,25.7265,25.9390909090909,1.995
11/14/2001 00:00:00,26.885,25.9735,26.1497272727273,1.89
11/15/2001 00:00:00,27.08,26.182,26.3509090909091,1.355
11/16/2001 00:00:00,27.04,26.3135,26.5069090909091,1.26
11/19/2001 00:00:00,27.435,26.479,26.7108181818182,1.07
11/20/2001 00:00:00,27.255,26.568,26.8519090909091,1.145
11/21/2001 00:00:00,26.965,26.6535,26.9240909090909,1.085
11/23/2001 00:00:00,27.37,26.8025,27.0543636363636,1.31
11/26/2001 00:00:00,27.2,26.9165,27.1266363636364,1.675
11/27/2001 00:00:00,27.055,27.0695,27.1518181818182,0.645
11/28/2001 00:00:00,26.55,27.0835,27.0573636363636,-0.335000000000001
11/29/2001 00:00:00,26.67,27.062,26.9821818181818,-0.409999999999997
11/30/2001 00:00:00,26.885,27.0425,26.95,-0.154999999999998
12/3/2001 00:00:00,26.52,26.9905,26.855,-0.914999999999999
12/4/2001 00:00:00,26.81,26.928,26.8221818181818,-0.445
12/5/2001 00:00:00,27.6,26.9625,26.9443636363636,0.635000000000002
12/6/2001 00:00:00,27.42,27.008,27.0275454545455,0.0500000000000007
12/7/2001 00:00:00,26.62,26.933,26.957,-0.579999999999998
12/10/2001 00:00:00,25.77,26.79,26.7455454545455,-1.285
12/11/2001 00:00:00,26.125,26.697,26.6246363636364,-0.425000000000001
12/12/2001 00:00:00,25.63,26.605,26.4306363636364,-1.04
12/13/2001 00:00:00,25.15,26.453,26.1660909090909,-1.735
12/14/2001 00:00:00,24.95,26.2595,25.8928181818182,-1.57
12/17/2001 00:00:00,25.35,26.1425,25.7274545454545,-1.46
12/18/2001 00:00:00,25.995,26.061,25.7006363636364,-1.605
12/19/2001 00:00:00,25.815,25.8825,25.6559090909091,-1.605
12/20/2001 00:00:00,25.9,25.7305,25.6590909090909,-0.720000000000002
12/21/2001 00:00:00,25.29,25.5975,25.579,-0.48
12/24/2001 00:00:00,25.44,25.5645,25.5503636363636,-0.684999999999999
12/26/2001 00:00:00,25.4,25.492,25.5204545454545,-0.23
12/27/2001 00:00:00,25.4,25.469,25.5037272727273,0.25
12/28/2001 00:00:00,25.565,25.5105,25.5211818181818,0.615000000000002
12/31/2001 00:00:00,25.86,25.6015,25.5847272727273,0.509999999999998
1/2/2002 00:00:00,25.68,25.6345,25.599,-0.315000000000001
1/3/2002 00:00:00,26.12,25.647,25.6872727272727,0.305
1/4/2002 00:00:00,26.91,25.7565,25.9169090909091,1.01
1/7/2002 00:00:00,26.87,25.8535,26.1193636363636,1.58
1/8/2002 00:00:00,26.5,25.9745,26.2369090909091,1.06
1/9/2002 00:00:00,26.37,26.0675,26.3088181818182,0.970000000000002
1/10/2002 00:00:00,25.525,26.08,26.2101818181818,0.125
1/11/2002 00:00:00,25.105,26.0505,26.0329090909091,-0.460000000000001
1/14/2002 00:00:00,24.205,25.9145,25.6973636363636,-1.655
1/15/2002 00:00:00,24.185,25.747,25.3829090909091,-1.495
1/16/2002 00:00:00,23.295,25.5085,24.9370909090909,-2.825
1/17/2002 00:00:00,22.775,25.174,24.4400909090909,-4.135
1/18/2002 00:00:00,22.555,24.7385,23.9639090909091,-4.315
1/22/2002 00:00:00,22.605,24.312,23.576,-3.895
1/23/2002 00:00:00,23.24,23.986,23.3810909090909,-3.13
1/24/2002 00:00:00,23.4,23.689,23.2745454545455,-2.125
1/25/2002 00:00:00,24.05,23.5415,23.3401818181818,-1.055
1/28/2002 00:00:00,23.74,23.405,23.3762727272727,-0.465
1/29/2002 00:00:00,23.265,23.311,23.3508181818182,-0.919999999999998
1/30/2002 00:00:00,23.655,23.258,23.4133636363636,0.359999999999999
1/31/2002 00:00:00,24.295,23.358,23.6019090909091,1.52
2/1/2002 00:00:00,24.055,23.486,23.7286363636364,1.5
2/4/2002 00:00:00,23.59,23.5895,23.7475454545455,0.984999999999999
2/5/2002 00:00:00,23.185,23.6475,23.674,-0.0549999999999997
2/6/2002 00:00:00,23.355,23.659,23.6208181818182,-0.0449999999999982
2/7/2002 00:00:00,23.265,23.6455,23.5491818181818,-0.785
2/8/2002 00:00:00,23.425,23.583,23.5090909090909,-0.314999999999998
2/11/2002 00:00:00,24.445,23.6535,23.6658181818182,1.18
2/12/2002 00:00:00,24.33,23.76,23.7888181818182,0.674999999999997
2/13/2002 00:00:00,24.45,23.8395,23.9142727272727,0.154999999999998
2/14/2002 00:00:00,24.155,23.8255,23.9716363636364,0.100000000000001
2/15/2002 00:00:00,24.525,23.8725,24.0988181818182,0.934999999999999
2/19/2002 00:00:00,23.8,23.8935,24.0856363636364,0.615000000000002
2/20/2002 00:00:00,24.5,24.025,24.1959090909091,1.145
2/21/2002 00:00:00,24.795,24.169,24.3359090909091,1.53
2/22/2002 00:00:00,25.2,24.3625,24.5233636363636,1.775
2/25/2002 00:00:00,25.375,24.5575,24.7074545454545,0.93
2/26/2002 00:00:00,25.52,24.665,24.8824545454545,1.19
2/27/2002 00:00:00,25.6,24.792,25.0524545454545,1.15
2/28/2002 00:00:00,25.675,24.9145,25.213,1.52
3/1/2002 00:00:00,26.3,25.129,25.4649090909091,1.775
3/4/2002 00:00:00,27.145,25.391,25.8314545454545,3.345
3/5/2002 00:00:00,26.205,25.6315,25.9794545454545,1.705
3/6/2002 00:00:00,26.65,25.8465,26.1646363636364,1.855
3/7/2002 00:00:00,27,26.067,26.3743636363636,1.8
3/8/2002 00:00:00,27.185,26.2655,26.5776363636364,1.81
3/11/2002 00:00:00,27.1,26.438,26.7293636363636,1.58
3/12/2002 00:00:00,27.26,26.612,26.8788181818182,1.66
3/13/2002 00:00:00,26.9,26.742,26.9311818181818,1.225
3/14/2002 00:00:00,27.335,26.908,27.039,1.035
3/15/2002 00:00:00,27.635,27.0415,27.1711818181818,0.490000000000002
3/18/2002 00:00:00,27.69,27.096,27.2890909090909,1.485
3/19/2002 00:00:00,27.885,27.264,27.4325454545455,1.235
3/20/2002 00:00:00,28.265,27.4255,27.6145454545455,1.265
3/21/2002 00:00:00,27.36,27.4615,27.6026363636364,0.175000000000001
3/22/2002 00:00:00,26.925,27.4355,27.5050909090909,-0.175000000000001
3/25/2002 00:00:00,26.34,27.3595,27.3059090909091,-0.920000000000002
3/26/2002 00:00:00,26.955,27.329,27.2323636363636,0.0549999999999997
3/27/2002 00:00:00,27.65,27.404,27.2907272727273,0.314999999999998
3/28/2002 00:00:00,27.455,27.416,27.3,-0.180000000000003
4/1/2002 00:00:00,27.25,27.3775,27.2698181818182,-0.440000000000001
4/2/2002 00:00:00,27.22,27.3305,27.2411818181818,-0.665000000000003
4/3/2002 00:00:00,26.945,27.2365,27.1710909090909,-1.32
4/4/2002 00:00:00,26.38,27.048,27.0153636363636,-0.98
4/5/2002 00:00:00,26.825,26.9945,26.9748181818182,-0.100000000000001
4/8/2002 00:00:00,26.95,26.997,26.9667272727273,0.609999999999999
4/9/2002 00:00:00,27.08,27.071,26.9818181818182,0.125
4/10/2002 00:00:00,27.46,27.1215,27.0525454545455,-0.189999999999998
4/11/2002 00:00:00,27.135,27.07,27.055,-0.319999999999997
4/12/2002 00:00:00,27.175,27.042,27.0740909090909,-0.0749999999999993
4/15/2002 00:00:00,26.905,27.0075,27.0491818181818,-0.314999999999998
4/16/2002 00:00:00,27.665,27.052,27.1687272727273,0.719999999999999
4/17/2002 00:00:00,27.45,27.1025,27.2410909090909,1.07
4/18/2002 00:00:00,26.51,27.1155,27.1333636363636,-0.314999999999998
4/19/2002 00:00:00,26.75,27.108,27.0669090909091,-0.199999999999999
4/22/2002 00:00:00,26.38,27.051,26.9345454545455,-0.699999999999999
4/23/2002 00:00:00,26.12,26.955,26.7652727272727,-1.34
4/24/2002 00:00:00,26.165,26.8255,26.6216363636364,-0.970000000000002
4/25/2002 00:00:00,25.92,26.704,26.457,-1.255
4/26/2002 00:00:00,26.055,26.592,26.339,-0.850000000000001
4/29/2002 00:00:00,25.625,26.464,26.1631818181818,-2.04
4/30/2002 00:00:00,26.155,26.313,26.107,-1.295
5/1/2002 00:00:00,26.11,26.179,26.0700909090909,-0.400000000000002
5/2/2002 00:00:00,26.775,26.2055,26.1784545454545,0.0249999999999986
5/3/2002 00:00:00,26.935,26.224,26.3110909090909,0.555
5/6/2002 00:00:00,27.01,26.287,26.454,0.890000000000001
5/7/2002 00:00:00,27.58,26.433,26.6890909090909,1.415
5/8/2002 00:00:00,27.81,26.5975,26.9394545454545,1.89
5/9/2002 00:00:00,27.825,26.788,27.1626363636364,1.77
5/10/2002 00:00:00,27.725,26.955,27.333,2.1
5/13/2002 00:00:00,27.9,27.1825,27.5048181818182,1.745
5/14/2002 00:00:00,28.55,27.422,27.7534545454545,2.44
5/15/2002 00:00:00,28.98,27.709,28.0367272727273,2.205
5/16/2002 00:00:00,28.785,27.91,28.2323636363636,1.85
5/17/2002 00:00:00,28.825,28.099,28.3987272727273,1.815
5/20/2002 00:00:00,28.72,28.27,28.5116363636364,1.14
5/21/2002 00:00:00,28.65,28.377,28.5807272727273,0.84
5/22/2002 00:00:00,28.8,28.476,28.6576363636364,0.975000000000001
5/23/2002 00:00:00,29.165,28.61,28.7829090909091,1.44
5/24/2002 00:00:00,28.99,28.7365,28.852,1.09
5/28/2002 00:00:00,28.67,28.8135,28.8399090909091,0.120000000000001
5/29/2002 00:00:00,28.41,28.7995,28.7665454545455,-0.57
5/30/2002 00:00:00,28.145,28.716,28.6475454545455,-0.640000000000001
5/31/2002 00:00:00,28.59,28.6965,28.6246363636364,-0.234999999999999
6/3/2002 00:00:00,27.725,28.5865,28.448,-0.994999999999997
6/4/2002 00:00:00,27.56,28.4705,28.2613636363636,-1.09
6/5/2002 00:00:00,28.265,28.432,28.224,-0.535
6/6/2002 00:00:00,27.76,28.328,28.1018181818182,-1.405
6/7/2002 00:00:00,28.05,28.2165,28.0512727272727,-0.939999999999998
6/10/2002 00:00:00,28.625,28.18,28.1255454545455,-0.0450000000000017
6/11/2002 00:00:00,28.145,28.1275,28.1191818181818,-0.265000000000001
6/12/2002 00:00:00,28.84,28.1705,28.2487272727273,0.695
6/13/2002 00:00:00,28.555,28.2115,28.3186363636364,-0.0350000000000001
6/14/2002 00:00:00,28.47,28.1995,28.3656363636364,0.744999999999997
6/17/2002 00:00:00,29.4,28.367,28.5839090909091,1.84
6/18/2002 00:00:00,29.325,28.5435,28.7580909090909,1.06
6/19/2002 00:00:00,29.65,28.682,28.9592727272727,1.89
6/20/2002 00:00:00,29.945,28.9005,29.1889090909091,1.895
6/21/2002 00:00:00,29.695,29.065,29.3333636363636,1.07
6/24/2002 00:00:00,29.845,29.187,29.4751818181818,1.7
6/25/2002 00:00:00,29.99,29.3715,29.6211818181818,1.15
6/26/2002 00:00:00,29.775,29.465,29.6945454545455,1.22
6/27/2002 00:00:00,29.57,29.5665,29.7136363636364,1.1
6/28/2002 00:00:00,30.95,29.8145,29.9651818181818,1.55
7/1/2002 00:00:00,30.525,29.927,30.0943636363636,1.2
7/2/2002 00:00:00,30.465,30.041,30.1921818181818,0.815000000000001
7/3/2002 00:00:00,29.96,30.072,30.1774545454546,0.0150000000000006
7/5/2002 00:00:00,30.925,30.17,30.3325454545455,1.23
7/8/2002 00:00:00,31.22,30.3225,30.5234545454545,1.375
7/9/2002 00:00:00,30.325,30.3705,30.5239090909091,0.335000000000001
7/10/2002 00:00:00,30.045,30.376,30.4647272727273,0.270000000000003
7/11/2002 00:00:00,29.26,30.3245,30.2618181818182,-0.309999999999999
7/12/2002 00:00:00,29.02,30.2695,30.0246363636364,-1.93
7/15/2002 00:00:00,28.3,30.0045,29.6665454545455,-2.225
7/16/2002 00:00:00,27.845,29.7365,29.2739090909091,-2.62
7/17/2002 00:00:00,28.145,29.5045,28.9845454545455,-1.815
7/18/2002 00:00:00,28.055,29.314,28.721,-2.87
7/19/2002 00:00:00,25.825,28.804,28.0866363636364,-5.395
7/22/2002 00:00:00,24.635,28.1455,27.3286363636364,-5.69
7/23/2002 00:00:00,24.54,27.567,26.6730909090909,-5.505
7/24/2002 00:00:00,26.555,27.218,26.4890909090909,-2.705
7/25/2002 00:00:00,28.215,27.1135,26.6703636363636,-0.805
7/26/2002 00:00:00,28,27.0115,26.8315454545455,-0.300000000000001
7/29/2002 00:00:00,29.735,27.155,27.3267272727273,1.89
7/30/2002 00:00:00,28.105,27.181,27.4994545454545,-0.0399999999999991
7/31/2002 00:00:00,28.7,27.2365,27.7756363636364,0.645
8/1/2002 00:00:00,28.575,27.2885,28.019,2.75
8/2/2002 00:00:00,26.98,27.404,27.9629090909091,2.345
8/5/2002 00:00:00,27.065,27.647,27.9012727272727,2.525
8/6/2002 00:00:00,28.185,28.0115,27.9990909090909,1.63
8/7/2002 00:00:00,28.905,28.2465,28.1615454545455,0.690000000000001
8/8/2002 00:00:00,29.095,28.3345,28.3158181818182,1.095
8/9/2002 00:00:00,28.94,28.4285,28.4259090909091,-0.794999999999998
8/12/2002 00:00:00,28.775,28.3325,28.4889090909091,0.669999999999998
8/13/2002 00:00:00,28.365,28.3585,28.4948181818182,-0.335000000000001
8/14/2002 00:00:00,28.63,28.3515,28.5441818181818,0.0549999999999997
8/15/2002 00:00:00,28.645,28.3585,28.5975454545455,1.665
8/16/2002 00:00:00,28.5,28.5105,28.6232727272727,1.435
8/19/2002 00:00:00,29.26,28.73,28.7595454545455,1.075
8/20/2002 00:00:00,28.55,28.7665,28.7268181818182,-0.355
8/21/2002 00:00:00,28.64,28.74,28.7038181818182,-0.454999999999998
8/22/2002 00:00:00,29,28.7305,28.7510909090909,0.0599999999999987
8/23/2002 00:00:00,28.265,28.663,28.6664545454545,-0.509999999999998
8/26/2002 00:00:00,28.495,28.635,28.6359090909091,0.130000000000003
8/27/2002 00:00:00,28.375,28.636,28.5886363636364,-0.254999999999999
8/28/2002 00:00:00,27.76,28.549,28.4293636363636,-0.884999999999998
8/29/2002 00:00:00,27.88,28.4725,28.3077272727273,-0.620000000000001
8/30/2002 00:00:00,28.135,28.436,28.2463636363636,-1.125
9/3/2002 00:00:00,27.505,28.2605,28.0770909090909,-1.045
9/4/2002 00:00:00,27.865,28.192,28.0051818181818,-0.775000000000002
9/5/2002 00:00:00,26.8,28.008,27.7520909090909,-2.2
9/6/2002 00:00:00,26.995,27.8075,27.5679090909091,-1.27
9/9/2002 00:00:00,27.19,27.7,27.4556363636364,-1.305
9/10/2002 00:00:00,26.875,27.538,27.3056363636364,-1.5
9/11/2002 00:00:00,26.85,27.3855,27.1805454545455,-0.91
9/12/2002 00:00:00,25.96,27.2055,26.9213636363636,-1.92
9/13/2002 00:00:00,25.735,26.991,26.654,-2.4
9/16/2002 00:00:00,25.705,26.748,26.4201818181818,-1.8
9/17/2002 00:00:00,25.365,26.534,26.1687272727273,-2.5
9/18/2002 00:00:00,25.26,26.2735,25.9370909090909,-1.54
9/19/2002 00:00:00,24.695,26.063,25.6500909090909,-2.3
9/20/2002 00:00:00,25.105,25.874,25.4759090909091,-2.085
9/23/2002 00:00:00,24.85,25.64,25.2897272727273,-2.025
9/24/2002 00:00:00,23.665,25.319,24.9306363636364,-3.185
9/25/2002 00:00:00,23.625,24.9965,24.6226363636364,-2.335
9/26/2002 00:00:00,23.75,24.7755,24.396,-1.985
9/27/2002 00:00:00,23.035,24.5055,24.0795454545455,-2.67
9/30/2002 00:00:00,22.35,24.17,23.6876363636364,-3.015
10/1/2002 00:00:00,23.73,24.0065,23.6076363636364,-1.53
10/2/2002 00:00:00,22.45,23.7255,23.3246363636364,-2.245
10/3/2002 00:00:00,22.515,23.5075,23.1045454545455,-2.59
10/4/2002 00:00:00,21.86,23.183,22.805,-2.99
10/7/2002 00:00:00,21.39,22.837,22.479,-2.275
10/8/2002 00:00:00,22.05,22.6755,22.3359090909091,-1.575
10/9/2002 00:00:00,20.705,22.3835,21.9776363636364,-3.045
10/10/2002 00:00:00,22.95,22.3035,22.0806363636364,-0.0850000000000009
10/11/2002 00:00:00,24.15,22.415,22.4163636363636,1.8
10/14/2002 00:00:00,23.51,22.531,22.6154545454546,-0.219999999999999
10/15/2002 00:00:00,25.225,22.6805,23.1052727272727,2.775
10/16/2002 00:00:00,23.82,22.8175,23.3124545454546,1.305
10/17/2002 00:00:00,25.46,23.112,23.7929090909091,3.6
10/18/2002 00:00:00,24.865,23.4125,24.1116363636364,3.475
10/21/2002 00:00:00,26.4,23.9135,24.6548181818182,4.35
10/22/2002 00:00:00,25.245,24.233,24.8969090909091,4.54
10/23/2002 00:00:00,25.095,24.672,25.0536363636364,2.145
10/24/2002 00:00:00,24.305,24.8075,24.9869090909091,0.155000000000001
10/25/2002 00:00:00,24.505,24.843,24.9319090909091,0.994999999999997
10/28/2002 00:00:00,23.995,24.8915,24.7777272727273,-1.23
10/29/2002 00:00:00,23.2,24.689,24.4701818181818,-0.620000000000001
10/30/2002 00:00:00,23.35,24.642,24.2267272727273,-2.11
10/31/2002 00:00:00,23.515,24.4475,24.0218181818182,-1.35
11/1/2002 00:00:00,24.475,24.4085,24.0268181818182,-1.925
11/4/2002 00:00:00,24.345,24.203,24.0152727272727,-0.900000000000002
11/5/2002 00:00:00,24.41,24.1195,24.0529090909091,-0.684999999999999
11/6/2002 00:00:00,25.09,24.119,24.2293636363636,0.785
11/7/2002 00:00:00,24.1,24.0985,24.2259090909091,-0.404999999999998
11/8/2002 00:00:00,23.64,24.012,24.1425454545455,-0.355
11/11/2002 00:00:00,23.05,23.9175,23.9676363636364,-0.149999999999999
11/12/2002 00:00:00,23.905,23.988,23.9653636363636,0.555
11/13/2002 00:00:00,23.65,24.018,23.9039090909091,0.134999999999998
11/14/2002 00:00:00,24.405,24.107,23.9742727272727,-0.0700000000000003
11/15/2002 00:00:00,24.475,24.107,24.0411818181818,0.130000000000003
11/18/2002 00:00:00,23.915,24.064,24.0062727272727,-0.495000000000001
11/19/2002 00:00:00,24.01,24.024,23.9964545454545,-1.08
11/20/2002 00:00:00,24.2,23.935,24.0284545454546,0.0999999999999979
11/21/2002 00:00:00,24.01,23.926,24.0420909090909,0.370000000000001
11/22/2002 00:00:00,23.395,23.9015,23.9455454545455,0.344999999999999
11/25/2002 00:00:00,23.54,23.9505,23.8798181818182,-0.365000000000002
11/26/2002 00:00:00,23.485,23.9085,23.7951818181818,-0.164999999999999
11/27/2002 00:00:00,24.545,23.998,23.9109090909091,0.140000000000001
11/29/2002 00:00:00,25.04,24.0615,24.1003636363636,0.564999999999998
12/2/2002 00:00:00,24.365,24.0505,24.1555454545455,0.449999999999999
12/3/2002 00:00:00,24.08,24.067,24.1609090909091,0.0699999999999967
12/4/2002 00:00:00,23.94,24.06,24.1378181818182,-0.259999999999998
12/5/2002 00:00:00,23.715,24.0115,24.0750909090909,-0.295000000000002
12/6/2002 00:00:00,24.03,24.0135,24.0784545454545,0.635000000000002
12/9/2002 00:00:00,23.665,24.0405,24.0150909090909,0.125
12/10/2002 00:00:00,24.025,24.089,24.0122727272727,0.539999999999999
12/11/2002 00:00:00,24.19,24.1595,24.0306363636364,-0.355
12/12/2002 00:00:00,24.365,24.1415,24.068,-0.675000000000001
12/13/2002 00:00:00,24.25,24.0625,24.0877272727273,-0.114999999999998
12/16/2002 00:00:00,25.3,24.156,24.3127272727273,1.22
12/17/2002 00:00:00,25.225,24.2705,24.5070909090909,1.285
12/18/2002 00:00:00,24.67,24.3435,24.5797272727273,0.955000000000002
12/19/2002 00:00:00,24.475,24.4195,24.6036363636364,0.445
12/20/2002 00:00:00,24.95,24.5115,24.7000909090909,1.285
12/23/2002 00:00:00,24.785,24.6235,24.7498181818182,0.760000000000002
12/24/2002 00:00:00,24.75,24.696,24.7728181818182,0.559999999999999
12/26/2002 00:00:00,24.82,24.759,24.7953636363636,0.455000000000002
12/27/2002 00:00:00,24.725,24.795,24.7891818181818,0.475000000000001
12/30/2002 00:00:00,25.055,24.8755,24.8364545454545,-0.245000000000001
12/31/2002 00:00:00,25.075,24.853,24.8727272727273,-0.150000000000002
1/2/2003 00:00:00,25.84,24.9145,25.0521818181818,1.17
1/3/2003 00:00:00,25.81,25.0285,25.215,1.335
1/6/2003 00:00:00,26.23,25.204,25.4334545454545,1.28
1/7/2003 00:00:00,26.05,25.314,25.5872727272727,1.265
1/8/2003 00:00:00,25.56,25.3915,25.632,0.809999999999999
1/9/2003 00:00:00,26.095,25.526,25.7599090909091,1.275
1/10/2003 00:00:00,26.325,25.6765,25.9051818181818,1.6
1/13/2003 00:00:00,26.05,25.809,25.9730909090909,0.995000000000001
1/14/2003 00:00:00,26.145,25.918,26.0341818181818,1.07
1/15/2003 00:00:00,25.925,26.003,26.0354545454545,0.0850000000000009
1/16/2003 00:00:00,26.31,26.05,26.0912727272727,0.5
1/17/2003 00:00:00,26.06,26.075,26.0930909090909,-0.170000000000002
1/21/2003 00:00:00,25.455,25.9975,25.9803636363636,-0.595000000000002
1/22/2003 00:00:00,25.105,25.903,25.8180909090909,-0.454999999999998
1/23/2003 00:00:00,25.465,25.8935,25.7384545454545,-0.629999999999999
1/24/2003 00:00:00,24.775,25.7615,25.5350909090909,-1.55
1/27/2003 00:00:00,24.035,25.5325,25.2211818181818,-2.015
1/28/2003 00:00:00,24.435,25.371,25.0216363636364,-1.71
1/29/2003 00:00:00,24.46,25.2025,24.856,-1.465
1/30/2003 00:00:00,23.695,24.9795,24.5819090909091,-2.615
1/31/2003 00:00:00,24.415,24.79,24.4792727272727,-1.645
2/3/2003 00:00:00,24.55,24.639,24.4356363636364,-0.904999999999998
2/4/2003 00:00:00,24.385,24.532,24.3894545454546,-0.719999999999999
2/5/2003 00:00:00,24.4,24.4615,24.3654545454545,-1.065
2/6/2003 00:00:00,24.125,24.3275,24.3042727272727,-0.649999999999999
2/7/2003 00:00:00,23.85,24.235,24.2174545454546,-0.184999999999999
2/10/2003 00:00:00,24.04,24.2355,24.182,-0.395
2/11/2003 00:00:00,23.71,24.163,24.0864545454546,-0.75
2/12/2003 00:00:00,23.5,24.067,23.9659090909091,-0.195
2/13/2003 00:00:00,23.49,24.0465,23.861,-0.925000000000001
2/14/2003 00:00:00,23.69,23.974,23.7961818181818,-0.859999999999999
2/18/2003 00:00:00,24.24,23.943,23.8445454545455,-0.145000000000003
2/19/2003 00:00:00,23.945,23.899,23.8449090909091,-0.454999999999998
2/20/2003 00:00:00,23.545,23.8135,23.7805454545455,-0.579999999999998
2/21/2003 00:00:00,23.955,23.7965,23.8062727272727,0.104999999999997
2/24/2003 00:00:00,23.375,23.749,23.7296363636364,-0.664999999999999
2/25/2003 00:00:00,23.2,23.665,23.6298181818182,-0.510000000000002
2/26/2003 00:00:00,23.305,23.6245,23.5643636363636,-0.195
2/27/2003 00:00:00,23.42,23.6165,23.5271818181818,-0.0699999999999967
2/28/2003 00:00:00,23.2,23.5875,23.4514545454545,-0.490000000000002
3/3/2003 00:00:00,23.09,23.5275,23.361,-1.15
3/4/2003 00:00:00,22.325,23.336,23.1423636363636,-1.62
3/5/2003 00:00:00,22.21,23.1625,22.9376363636364,-1.335
3/6/2003 00:00:00,21.65,22.973,22.6626363636364,-2.305
3/7/2003 00:00:00,21.82,22.7595,22.453,-1.555
3/10/2003 00:00:00,21.435,22.5655,22.2121818181818,-1.765
3/11/2003 00:00:00,21.32,22.3775,21.9857272727273,-1.985
3/12/2003 00:00:00,21.735,22.2205,21.8689090909091,-1.685
3/13/2003 00:00:00,22.47,22.1255,21.9142727272727,-0.73
3/14/2003 00:00:00,22.545,22.06,21.9905454545455,-0.544999999999998
3/17/2003 00:00:00,23.205,22.0715,22.1987272727273,0.879999999999999
3/18/2003 00:00:00,23.7,22.209,22.4948181818182,1.49
3/19/2003 00:00:00,23.72,22.36,22.7695454545455,2.07
3/20/2003 00:00:00,23.71,22.566,23.015,1.89
3/21/2003 00:00:00,24.995,22.8835,23.4566363636364,3.56
3/24/2003 00:00:00,23.825,23.1225,23.6278181818182,2.505
3/25/2003 00:00:00,23.86,23.3765,23.7619090909091,2.125
3/26/2003 00:00:00,23.62,23.565,23.8061818181818,1.15
3/27/2003 00:00:00,23.34,23.652,23.7652727272727,0.794999999999998
3/28/2003 00:00:00,23.26,23.7235,23.694,0.0550000000000033
3/31/2003 00:00:00,22.54,23.657,23.4788181818182,-1.16
4/1/2003 00:00:00,23.135,23.6005,23.3839090909091,-0.584999999999997
4/2/2003 00:00:00,23.77,23.6055,23.4147272727273,0.0599999999999987
4/3/2003 00:00:00,23.11,23.5455,23.3246363636364,-1.885
4/4/2003 00:00:00,23.065,23.3525,23.2372727272727,-0.759999999999998
4/7/2003 00:00:00,23.395,23.3095,23.245,-0.465
4/8/2003 00:00:00,22.925,23.216,23.1750909090909,-0.695
4/9/2003 00:00:00,22.495,23.1035,23.044,-0.844999999999999
4/10/2003 00:00:00,22.95,23.0645,23.0160909090909,-0.310000000000002
4/11/2003 00:00:00,22.81,23.0195,22.9698181818182,0.27
4/14/2003 00:00:00,22.94,23.0595,22.9553636363636,-0.195
4/15/2003 00:00:00,23.175,23.0635,22.9763636363636,-0.594999999999999
4/16/2003 00:00:00,22.745,22.961,22.9184545454545,-0.364999999999998
4/17/2003 00:00:00,23.04,22.954,22.9328181818182,-0.0250000000000021
4/21/2003 00:00:00,23.01,22.9485,22.943,-0.384999999999998
4/22/2003 00:00:00,23.675,22.9765,23.0750909090909,0.75
4/23/2003 00:00:00,23.925,23.0765,23.2475454545455,1.43
4/24/2003 00:00:00,23.735,23.2005,23.3672727272727,0.785
4/25/2003 00:00:00,23.09,23.2145,23.3471818181818,0.280000000000001
4/28/2003 00:00:00,23.825,23.316,23.4581818181818,0.884999999999998
4/29/2003 00:00:00,24.025,23.4245,23.5870909090909,0.849999999999998
4/30/2003 00:00:00,24.255,23.5325,23.7380909090909,1.51
5/1/2003 00:00:00,24.215,23.6795,23.8621818181818,1.175
5/2/2003 00:00:00,24.465,23.822,24.005,1.455
5/5/2003 00:00:00,24.34,23.955,24.0991818181818,0.664999999999999
5/6/2003 00:00:00,24.385,24.026,24.1773636363636,0.460000000000001
5/7/2003 00:00:00,24.055,24.039,24.1826363636364,0.32
5/8/2003 00:00:00,23.45,24.0105,24.0755454545455,0.359999999999999
5/9/2003 00:00:00,23.705,24.072,24.02,-0.120000000000001
5/12/2003 00:00:00,24.08,24.0975,24.0214545454545,0.0549999999999997
5/13/2003 00:00:00,24.09,24.104,24.0200909090909,-0.164999999999999
5/14/2003 00:00:00,23.775,24.056,23.9602727272727,-0.440000000000001
5/15/2003 00:00:00,24.025,24.037,23.9546363636364,-0.440000000000001
5/16/2003 00:00:00,24.05,23.9955,23.957,-0.289999999999999
5/19/2003 00:00:00,23.635,23.925,23.8914545454545,-0.75
5/20/2003 00:00:00,23.635,23.85,23.8387272727273,-0.419999999999998
5/21/2003 00:00:00,23.765,23.821,23.8232727272727,0.315000000000001
5/22/2003 00:00:00,23.94,23.87,23.8449090909091,0.235000000000003
5/23/2003 00:00:00,23.95,23.8945,23.8594545454545,-0.129999999999999
5/27/2003 00:00:00,24.375,23.924,23.9468181818182,0.285
5/28/2003 00:00:00,24.34,23.949,24.0224545454545,0.565000000000001
5/29/2003 00:00:00,24.055,23.977,24.0417272727273,0.0300000000000011
5/30/2003 00:00:00,24.315,24.006,24.1031818181818,0.265000000000001
6/2/2003 00:00:00,24.505,24.0515,24.1939090909091,0.869999999999997
6/3/2003 00:00:00,24.64,24.152,24.3009090909091,1.005
6/4/2003 00:00:00,25.29,24.3175,24.5078181818182,1.525
6/5/2003 00:00:00,25.03,24.444,24.6373636363636,1.09
6/6/2003 00:00:00,24.85,24.535,24.7111818181818,0.900000000000002
6/9/2003 00:00:00,24.415,24.5815,24.6893636363636,0.0399999999999991
6/10/2003 00:00:00,24.595,24.6035,24.6918181818182,0.254999999999999
6/11/2003 00:00:00,25,24.6695,24.7639090909091,0.945
6/12/2003 00:00:00,25.515,24.8155,24.9176363636364,1.2
6/13/2003 00:00:00,25.235,24.9075,24.9939090909091,0.73
6/16/2003 00:00:00,25.675,25.0245,25.1334545454545,1.035
6/17/2003 00:00:00,25.965,25.157,25.3044545454545,0.675000000000001
6/18/2003 00:00:00,25.6,25.188,25.385,0.57
6/19/2003 00:00:00,25.625,25.2475,25.4644545454545,0.774999999999999
6/20/2003 00:00:00,25.785,25.341,25.5621818181818,1.37
6/23/2003 00:00:00,25.44,25.4435,25.5801818181818,0.845000000000002
6/24/2003 00:00:00,25.5,25.534,25.5904545454545,0.5
6/25/2003 00:00:00,25.44,25.578,25.5733636363636,-0.0749999999999993
6/26/2003 00:00:00,25.845,25.611,25.6219090909091,0.609999999999999
6/27/2003 00:00:00,25.495,25.637,25.6008181818182,-0.18
6/30/2003 00:00:00,25.37,25.6065,25.5522727272727,-0.594999999999999
7/1/2003 00:00:00,24.845,25.4945,25.4138181818182,-0.755000000000003
7/2/2003 00:00:00,25,25.4345,25.3239090909091,-0.625
7/3/2003 00:00:00,24.575,25.3295,25.1676363636364,-1.21
7/7/2003 00:00:00,25.125,25.2635,25.1304545454545,-0.315000000000001
7/8/2003 00:00:00,25.115,25.231,25.1034545454545,-0.385000000000002
7/9/2003 00:00:00,24.945,25.1755,25.0514545454545,-0.495000000000001
7/10/2003 00:00:00,24.7,25.1015,24.965,-1.145
7/11/2003 00:00:00,24.915,25.0085,24.9310909090909,-0.580000000000002
7/14/2003 00:00:00,25.005,24.9595,24.9304545454545,-0.365000000000002
7/15/2003 00:00:00,25.1,24.9325,24.956,0.255000000000003
7/16/2003 00:00:00,25.085,24.9565,24.9837272727273,0.0850000000000009
7/17/2003 00:00:00,25.62,25.0185,25.1043636363636,1.045
7/18/2003 00:00:00,26.205,25.1815,25.3200909090909,1.08
7/21/2003 00:00:00,26.5,25.319,25.5598181818182,1.385
7/22/2003 00:00:00,26.97,25.5045,25.86,2.025
7/23/2003 00:00:00,26.79,25.689,26.0937272727273,2.09
7/24/2003 00:00:00,27,25.919,26.3320909090909,2.085
7/25/2003 00:00:00,27.745,26.202,26.6640909090909,2.74
7/28/2003 00:00:00,27.64,26.4655,26.9255454545455,2.54
7/29/2003 00:00:00,27.815,26.737,27.1709090909091,2.73
7/30/2003 00:00:00,27.95,27.0235,27.3914545454545,2.33
7/31/2003 00:00:00,28.235,27.285,27.6117272727273,2.03
8/1/2003 00:00:00,27.79,27.4435,27.7035454545455,1.29
8/4/2003 00:00:00,27.555,27.549,27.7238181818182,0.585000000000001
8/5/2003 00:00:00,27.26,27.578,27.6712727272727,0.470000000000002
8/6/2003 00:00:00,27.115,27.6105,27.5870909090909,0.114999999999998
8/7/2003 00:00:00,26.475,27.558,27.3806363636364,-1.27
8/8/2003 00:00:00,26.87,27.4705,27.2555454545455,-0.77
8/11/2003 00:00:00,26.875,27.394,27.1472727272727,-0.940000000000001
8/12/2003 00:00:00,27.185,27.331,27.1092727272727,-0.765000000000001
8/13/2003 00:00:00,27.075,27.2435,27.0627272727273,-1.16
8/14/2003 00:00:00,27.43,27.163,27.0966363636364,-0.359999999999999
8/15/2003 00:00:00,27.445,27.1285,27.1479090909091,-0.109999999999999
8/18/2003 00:00:00,27.88,27.161,27.2845454545455,0.619999999999997
8/19/2003 00:00:00,28.12,27.247,27.4589090909091,1.005
8/20/2003 00:00:00,27.955,27.331,27.5876363636364,1.48
8/21/2003 00:00:00,28.1,27.4935,27.7274545454545,1.23
8/22/2003 00:00:00,27.685,27.575,27.7622727272727,0.809999999999999
8/25/2003 00:00:00,27.555,27.643,27.7586363636364,0.370000000000001
8/26/2003 00:00:00,27.41,27.6655,27.7162727272727,0.335000000000001
8/27/2003 00:00:00,27.275,27.6855,27.6452727272727,-0.155000000000001
8/28/2003 00:00:00,27.535,27.696,27.6179090909091,0.0899999999999999
8/29/2003 00:00:00,27.455,27.697,27.5740909090909,-0.425000000000001
9/2/2003 00:00:00,27.725,27.6815,27.5791818181818,-0.395
9/3/2003 00:00:00,27.94,27.6635,27.6261818181818,-0.014999999999997
9/4/2003 00:00:00,27.6,27.628,27.6146363636364,-0.5
9/5/2003 00:00:00,27.39,27.557,27.5713636363636,-0.294999999999998
9/8/2003 00:00:00,27.72,27.5605,27.601,0.164999999999999
9/9/2003 00:00:00,27.24,27.529,27.5427272727273,-0.170000000000002
9/10/2003 00:00:00,26.665,27.4545,27.3856363636364,-0.609999999999999
9/11/2003 00:00:00,26.695,27.3965,27.2475454545455,-0.84
9/12/2003 00:00:00,27.215,27.3645,27.2145454545455,-0.239999999999998
9/15/2003 00:00:00,26.815,27.3005,27.1146363636364,-0.91
9/16/2003 00:00:00,27.285,27.2565,27.1118181818182,-0.655000000000001
9/17/2003 00:00:00,27.075,27.17,27.0788181818182,-0.525000000000002
9/18/2003 00:00:00,27.465,27.1565,27.1324545454545,0.0749999999999993
9/19/2003 00:00:00,27.43,27.1605,27.1821818181818,-0.289999999999999
9/22/2003 00:00:00,26.94,27.0825,27.1420909090909,-0.299999999999997
9/23/2003 00:00:00,27.275,27.086,27.1770909090909,0.609999999999999
9/24/2003 00:00:00,26.47,27.0665,27.0650909090909,-0.225000000000001
9/25/2003 00:00:00,26.24,27.021,26.9148181818182,-0.975000000000001
9/26/2003 00:00:00,26.115,26.911,26.7500909090909,-0.700000000000003
9/29/2003 00:00:00,26.555,26.885,26.6853636363636,-0.73
9/30/2003 00:00:00,26.11,26.7675,26.5444545454545,-0.965
10/1/2003 00:00:00,26.48,26.708,26.4921818181818,-0.984999999999999
10/2/2003 00:00:00,26.665,26.628,26.4843636363636,-0.765000000000001
10/3/2003 00:00:00,27.035,26.5885,26.5583636363636,0.0949999999999989
10/6/2003 00:00:00,27.28,26.6225,26.6840909090909,0.00500000000000256
10/7/2003 00:00:00,27.485,26.6435,26.8409090909091,1.015
10/8/2003 00:00:00,27.42,26.7385,26.9820909090909,1.18
10/9/2003 00:00:00,27.39,26.8535,27.1005454545455,1.275
10/10/2003 00:00:00,27.135,26.9555,27.1517272727273,0.580000000000002
10/13/2003 00:00:00,27.64,27.064,27.2761818181818,1.53
10/14/2003 00:00:00,27.52,27.205,27.3590909090909,1.04
10/15/2003 00:00:00,27.655,27.3225,27.4409090909091,0.990000000000002
10/16/2003 00:00:00,27.67,27.423,27.5040909090909,0.635000000000002
10/17/2003 00:00:00,27.84,27.5035,27.5799090909091,0.559999999999999
10/20/2003 00:00:00,27.835,27.559,27.6401818181818,0.350000000000001
10/21/2003 00:00:00,27.875,27.598,27.6976363636364,0.454999999999998
10/22/2003 00:00:00,27.5,27.606,27.6798181818182,0.109999999999999
10/23/2003 00:00:00,27.855,27.6525,27.7250909090909,0.719999999999999
10/24/2003 00:00:00,27.965,27.7355,27.7819090909091,0.324999999999999
10/27/2003 00:00:00,28.035,27.775,27.8363636363636,0.515000000000001
10/28/2003 00:00:00,28.43,27.866,27.9554545454545,0.774999999999999
10/29/2003 00:00:00,28.53,27.9535,28.0761818181818,0.859999999999999
10/30/2003 00:00:00,29.09,28.0955,28.2828181818182,1.25
10/31/2003 00:00:00,28.825,28.194,28.4154545454545,0.989999999999998
11/3/2003 00:00:00,29.115,28.322,28.5829090909091,1.24
11/4/2003 00:00:00,29.065,28.441,28.718,1.565
11/5/2003 00:00:00,29.015,28.5925,28.8223636363636,1.16
11/6/2003 00:00:00,28.935,28.7005,28.8846363636364,0.969999999999999
11/7/2003 00:00:00,29.14,28.818,28.9645454545455,1.105
11/10/2003 00:00:00,28.775,28.892,28.9567272727273,0.344999999999999
11/11/2003 00:00:00,29,28.949,28.9763636363636,0.469999999999999
11/12/2003 00:00:00,29.155,29.0115,29.0138181818182,0.0650000000000013
11/13/2003 00:00:00,29.1,29.0125,29.0299090909091,0.275000000000002
11/14/2003 00:00:00,29.05,29.035,29.0367272727273,-0.0649999999999977
11/17/2003 00:00:00,28.705,28.994,28.9767272727273,-0.360000000000003
11/18/2003 00:00:00,28.415,28.929,28.8714545454545,-0.600000000000001
11/19/2003 00:00:00,28.63,28.8905,28.8170909090909,-0.305
11/20/2003 00:00:00,28.34,28.831,28.717,-0.800000000000001
11/21/2003 00:00:00,28.4,28.757,28.6386363636364,-0.375
11/24/2003 00:00:00,29.08,28.7875,28.6973636363636,0.0799999999999983
11/25/2003 00:00:00,29.055,28.793,28.746,-0.100000000000001
11/26/2003 00:00:00,29.35,28.8125,28.8472727272727,0.25
11/28/2003 00:00:00,29.235,28.826,28.9240909090909,0.184999999999999
12/1/2003 00:00:00,30.56,28.977,29.2393636363636,1.855
12/2/2003 00:00:00,30.175,29.124,29.4571818181818,1.76
12/3/2003 00:00:00,30.2,29.3025,29.6528181818182,1.57
12/4/2003 00:00:00,30.48,29.4875,29.8669090909091,2.14
12/5/2003 00:00:00,30.14,29.6675,29.9855454545455,1.74
12/8/2003 00:00:00,30.635,29.891,30.1614545454545,1.555
12/9/2003 00:00:00,31.24,30.107,30.4067272727273,2.185
12/10/2003 00:00:00,30.62,30.2635,30.5,1.27
12/11/2003 00:00:00,30.81,30.4095,30.5993636363636,1.575
12/12/2003 00:00:00,31.37,30.623,30.774,0.810000000000002
12/15/2003 00:00:00,31.36,30.703,30.908,1.185
12/16/2003 00:00:00,31.365,30.822,31.0283636363636,1.165
12/17/2003 00:00:00,31.615,30.9635,31.1725454545455,1.135
12/18/2003 00:00:00,31.945,31.11,31.351,1.805
12/19/2003 00:00:00,31.595,31.2555,31.4391818181818,0.959999999999997
12/22/2003 00:00:00,31.875,31.3795,31.5518181818182,0.635000000000002
12/23/2003 00:00:00,31.725,31.428,31.6146363636364,1.105
12/24/2003 00:00:00,31.655,31.5315,31.6559090909091,0.845000000000002
12/26/2003 00:00:00,31.955,31.646,31.7329090909091,0.584999999999997
12/29/2003 00:00:00,32.21,31.73,31.8354545454545,0.850000000000001
12/30/2003 00:00:00,31.78,31.772,31.8445454545455,0.415000000000003
12/31/2003 00:00:00,32.01,31.8365,31.8878181818182,0.395
1/2/2004 00:00:00,31.82,31.857,31.8848181818182,-0.125
1/5/2004 00:00:00,32.3,31.8925,31.9653636363636,0.704999999999998
1/6/2004 00:00:00,31.975,31.9305,31.9803636363636,0.100000000000001
1/7/2004 00:00:00,31.82,31.925,31.9602727272727,0.0949999999999989
1/8/2004 00:00:00,32.075,31.96,31.9875454545455,0.420000000000002
1/9/2004 00:00:00,31.385,31.933,31.883,-0.569999999999997
1/12/2004 00:00:00,31.75,31.9125,31.8497272727273,-0.460000000000001
1/13/2004 00:00:00,31.7,31.8615,31.8110909090909,-0.0800000000000018
1/14/2004 00:00:00,31.765,31.86,31.7935454545455,-0.244999999999997
1/15/2004 00:00:00,31.67,31.826,31.759,-0.149999999999999
1/16/2004 00:00:00,30.72,31.716,31.5579090909091,-1.58
1/20/2004 00:00:00,30.33,31.519,31.3059090909091,-1.645
1/21/2004 00:00:00,30.215,31.343,31.0688181818182,-1.605
1/22/2004 00:00:00,29.65,31.126,30.761,-2.425
1/23/2004 00:00:00,29.37,30.8555,30.4417272727273,-2.015
1/26/2004 00:00:00,29.56,30.673,30.2061818181818,-2.19
1/27/2004 00:00:00,29.5,30.448,29.9929090909091,-2.2
1/28/2004 00:00:00,29.3,30.208,29.7841818181818,-2.465
1/29/2004 00:00:00,29.02,29.9335,29.5681818181818,-2.65
1/30/2004 00:00:00,29.115,29.678,29.4193636363636,-1.605
2/2/2004 00:00:00,29.02,29.508,29.2997272727273,-1.31
2/3/2004 00:00:00,28.575,29.3325,29.1300909090909,-1.64
2/4/2004 00:00:00,28.445,29.1555,28.9687272727273,-1.205
2/5/2004 00:00:00,28.87,29.0775,28.9168181818182,-0.5
2/6/2004 00:00:00,29.35,29.0755,28.9663636363636,-0.209999999999997
2/9/2004 00:00:00,29.6,29.0795,29.0617272727273,0.100000000000001
2/10/2004 00:00:00,29.825,29.112,29.1972727272727,0.524999999999999
2/11/2004 00:00:00,30.345,29.2165,29.4214545454545,1.325
2/12/2004 00:00:00,30.06,29.3205,29.5748181818182,0.945
2/13/2004 00:00:00,29.5,29.359,29.6074545454545,0.48
2/17/2004 00:00:00,29.71,29.428,29.6712727272727,1.135
2/18/2004 00:00:00,29.4,29.5105,29.6661818181818,0.954999999999998
2/19/2004 00:00:00,29.67,29.633,29.6951818181818,0.800000000000001
2/20/2004 00:00:00,29.445,29.6905,29.661,0.0949999999999989
2/23/2004 00:00:00,29.46,29.7015,29.6190909090909,-0.140000000000001
2/24/2004 00:00:00,29.44,29.6855,29.5715454545455,-0.384999999999998
2/25/2004 00:00:00,29.755,29.6785,29.5841818181818,-0.59
2/26/2004 00:00:00,29.4,29.584,29.5335454545455,-0.66
2/27/2004 00:00:00,29.345,29.5125,29.4900909090909,-0.155000000000001
3/1/2004 00:00:00,29.7,29.5325,29.5241818181818,-0.0100000000000016
3/2/2004 00:00:00,29.345,29.496,29.4900909090909,-0.0549999999999997
3/3/2004 00:00:00,29.27,29.483,29.449,-0.400000000000002
3/4/2004 00:00:00,29.325,29.4485,29.4202727272727,-0.120000000000001
3/5/2004 00:00:00,29.265,29.4305,29.3869090909091,-0.195
3/8/2004 00:00:00,29.2,29.4045,29.345,-0.240000000000002
3/9/2004 00:00:00,28.95,29.3555,29.2623636363636,-0.805
3/10/2004 00:00:00,28.165,29.1965,29.0459090909091,-1.235
3/11/2004 00:00:00,28.2,29.0765,28.8647272727273,-1.145
3/12/2004 00:00:00,28.845,29.0265,28.8226363636364,-0.855
3/15/2004 00:00:00,28.28,28.8845,28.6869090909091,-1.065
3/16/2004 00:00:00,28.41,28.791,28.6006363636364,-0.859999999999999
3/17/2004 00:00:00,28.635,28.7275,28.5722727272727,-0.689999999999998
3/18/2004 00:00:00,28.27,28.622,28.4890909090909,-0.995000000000001
3/19/2004 00:00:00,28.085,28.504,28.3914545454545,-1.115
3/22/2004 00:00:00,27.725,28.3565,28.2498181818182,-1.225
3/23/2004 00:00:00,27.795,28.241,28.1477272727273,-0.369999999999997
3/24/2004 00:00:00,27.59,28.1835,28.0293636363636,-0.609999999999999
3/25/2004 00:00:00,28.255,28.189,28.0423636363636,-0.59
3/26/2004 00:00:00,28.09,28.1135,28.0243636363636,-0.190000000000001
3/29/2004 00:00:00,28.84,28.1695,28.1564545454545,0.43
3/30/2004 00:00:00,28.96,28.2245,28.3001818181818,0.324999999999999
3/31/2004 00:00:00,29.15,28.276,28.4684545454545,0.879999999999999
4/1/2004 00:00:00,29.585,28.4075,28.7064545454546,1.5
4/2/2004 00:00:00,30.035,28.6025,29.0023636363636,2.31
4/5/2004 00:00:00,29.99,28.829,29.2546363636364,2.195
4/6/2004 00:00:00,29.96,29.0455,29.4602727272727,2.37
4/7/2004 00:00:00,29.665,29.253,29.5729090909091,1.41
4/8/2004 00:00:00,29.865,29.414,29.6841818181818,1.775
4/12/2004 00:00:00,29.99,29.604,29.7889090909091,1.15
4/13/2004 00:00:00,29.65,29.685,29.7972727272727,0.689999999999998
4/14/2004 00:00:00,29.71,29.76,29.8018181818182,0.560000000000002
4/15/2004 00:00:00,30.355,29.8805,29.91,0.77
4/16/2004 00:00:00,30.63,29.985,30.0462727272727,0.594999999999999
4/19/2004 00:00:00,30.96,30.0775,30.2235454545455,0.970000000000002
4/20/2004 00:00:00,30.495,30.128,30.2994545454545,0.535
4/21/2004 00:00:00,30.67,30.199,30.398,1.005
4/22/2004 00:00:00,31.26,30.3585,30.5909090909091,1.395
4/23/2004 00:00:00,31.035,30.4755,30.7139090909091,1.045
4/26/2004 00:00:00,30.96,30.5725,30.802,1.31
4/27/2004 00:00:00,31.09,30.7165,30.8960909090909,1.38
4/28/2004 00:00:00,30.17,30.7625,30.7967272727273,-0.184999999999999
4/29/2004 00:00:00,29.81,30.708,30.6235454545455,-0.82
4/30/2004 00:00:00,29.655,30.6105,30.4320909090909,-1.305
5/3/2004 00:00:00,29.585,30.473,30.2456363636364,-0.91
5/4/2004 00:00:00,29.555,30.379,30.0787272727273,-1.115
5/5/2004 00:00:00,29.68,30.28,29.9516363636364,-1.58
5/6/2004 00:00:00,29.58,30.112,29.8243636363636,-1.455
5/7/2004 00:00:00,28.805,29.889,29.5867272727273,-2.155
5/10/2004 00:00:00,28.4,29.633,29.316,-2.69
5/11/2004 00:00:00,28.705,29.3945,29.1472727272727,-1.465
5/12/2004 00:00:00,28.675,29.245,29.0164545454546,-1.135
5/13/2004 00:00:00,29.04,29.168,28.9791818181818,-0.615000000000002
5/14/2004 00:00:00,29.055,29.108,28.9586363636364,-0.530000000000001
5/17/2004 00:00:00,28.49,28.9985,28.8462727272727,-1.065
5/18/2004 00:00:00,28.535,28.8965,28.762,-1.145
5/19/2004 00:00:00,28.445,28.773,28.6799090909091,-1.135
5/20/2004 00:00:00,28.45,28.66,28.6211818181818,-0.355
5/21/2004 00:00:00,29.135,28.693,28.7075454545455,0.735000000000003
5/24/2004 00:00:00,29.05,28.758,28.7724545454545,0.345000000000002
5/25/2004 00:00:00,29.63,28.8505,28.931,0.954999999999998
5/26/2004 00:00:00,29.715,28.9545,29.0881818181818,0.675000000000001
5/27/2004 00:00:00,29.925,29.043,29.2646363636364,0.870000000000001
5/28/2004 00:00:00,29.9,29.1275,29.4204545454545,1.41
6/1/2004 00:00:00,29.885,29.267,29.5581818181818,1.35
6/2/2004 00:00:00,30.12,29.4255,29.7132727272727,1.675
6/3/2004 00:00:00,29.65,29.546,29.7540909090909,1.2
6/4/2004 00:00:00,30.09,29.71,29.853,0.954999999999998
6/7/2004 00:00:00,30.55,29.8515,30.0057272727273,1.5
6/8/2004 00:00:00,30.54,30.0005,30.1309090909091,0.91
6/9/2004 00:00:00,30.405,30.078,30.2044545454545,0.690000000000001
6/10/2004 00:00:00,30.49,30.1555,30.2793636363636,0.564999999999998
6/14/2004 00:00:00,29.955,30.1585,30.2429090909091,0.0549999999999997
6/15/2004 00:00:00,30.01,30.1695,30.2159090909091,0.125
6/16/2004 00:00:00,30.14,30.195,30.2105454545455,0.0199999999999996
6/17/2004 00:00:00,30.13,30.196,30.1987272727273,0.48
6/18/2004 00:00:00,30.755,30.3065,30.3003636363636,0.664999999999999
6/21/2004 00:00:00,30.65,30.3625,30.3628181818182,0.0999999999999979
6/22/2004 00:00:00,30.765,30.384,30.436,0.225000000000001
6/23/2004 00:00:00,31.09,30.439,30.5643636363636,0.684999999999999
6/24/2004 00:00:00,30.81,30.4795,30.6318181818182,0.32
6/25/2004 00:00:00,30.9,30.5205,30.7082727272727,0.945
6/28/2004 00:00:00,30.725,30.5975,30.7454545454545,0.715
6/29/2004 00:00:00,31.425,30.739,30.8959090909091,1.285
6/30/2004 00:00:00,31.245,30.8495,30.9879090909091,1.115
7/1/2004 00:00:00,30.625,30.899,30.9470909090909,-0.129999999999999
7/2/2004 00:00:00,30.275,30.851,30.8336363636364,-0.375
7/6/2004 00:00:00,30.42,30.828,30.7552727272727,-0.344999999999999
7/7/2004 00:00:00,30.29,30.7805,30.6574545454545,-0.800000000000001
7/8/2004 00:00:00,30.215,30.693,30.5546363636364,-0.594999999999999
7/9/2004 00:00:00,30.575,30.6695,30.5331818181818,-0.324999999999999
7/12/2004 00:00:00,30.75,30.6545,30.5478181818182,0.0249999999999986
7/13/2004 00:00:00,30.71,30.653,30.5579090909091,-0.715
7/14/2004 00:00:00,30.83,30.5935,30.5900909090909,-0.415000000000003
7/15/2004 00:00:00,30.405,30.5095,30.5558181818182,-0.219999999999999
7/16/2004 00:00:00,29.865,30.4335,30.4386363636364,-0.41
7/19/2004 00:00:00,29.62,30.368,30.2907272727273,-0.800000000000001
7/20/2004 00:00:00,29.505,30.2765,30.1338181818182,-0.785
7/21/2004 00:00:00,29.045,30.152,29.9099090909091,-1.17
7/22/2004 00:00:00,29.045,30.035,29.7086363636364,-1.53
7/23/2004 00:00:00,28.94,29.8715,29.5095454545455,-1.81
7/26/2004 00:00:00,28.975,29.694,29.3465454545455,-1.735
7/27/2004 00:00:00,29.31,29.554,29.2767272727273,-1.52
7/28/2004 00:00:00,29.395,29.4105,29.2478181818182,-1.01
7/29/2004 00:00:00,29.72,29.342,29.3040909090909,-0.145
7/30/2004 00:00:00,29.475,29.303,29.3282727272727,-0.145
8/2/2004 00:00:00,29.74,29.315,29.4077272727273,0.234999999999999
8/3/2004 00:00:00,29.58,29.3225,29.4559090909091,0.534999999999997
8/4/2004 00:00:00,29.89,29.407,29.5590909090909,0.844999999999999
8/5/2004 00:00:00,29.015,29.404,29.4878181818182,0.0749999999999993
8/6/2004 00:00:00,28.315,29.3415,29.2898181818182,-0.66
8/9/2004 00:00:00,28.48,29.292,29.1331818181818,-0.829999999999998
8/10/2004 00:00:00,29.085,29.2695,29.0955454545455,-0.309999999999999
8/11/2004 00:00:00,29.14,29.244,29.072,-0.579999999999998
8/12/2004 00:00:00,28.525,29.1245,28.9412727272727,-0.950000000000003
8/13/2004 00:00:00,28.33,29.01,28.7968181818182,-1.41
8/16/2004 00:00:00,29.38,28.974,28.8640909090909,-0.199999999999999
8/17/2004 00:00:00,29.55,28.971,28.9688181818182,-0.34
8/18/2004 00:00:00,29.86,28.968,29.1304545454545,0.844999999999999
8/19/2004 00:00:00,29.76,29.0425,29.2744545454545,1.445
8/20/2004 00:00:00,29.9,29.201,29.4303636363636,1.42
8/23/2004 00:00:00,29.45,29.298,29.4756363636364,0.364999999999998
8/24/2004 00:00:00,29.82,29.3715,29.5705454545455,0.68
8/25/2004 00:00:00,30.085,29.466,29.7002727272727,1.56
8/26/2004 00:00:00,30.145,29.628,29.8237272727273,1.815
8/27/2004 00:00:00,29.95,29.79,29.8822727272727,0.57
8/30/2004 00:00:00,29.81,29.833,29.8859090909091,0.259999999999998
8/31/2004 00:00:00,29.885,29.8665,29.8953636363636,0.0250000000000021
9/1/2004 00:00:00,29.725,29.853,29.8696363636364,-0.0350000000000001
9/2/2004 00:00:00,30.415,29.9185,29.9718181818182,0.515000000000001
9/3/2004 00:00:00,30.345,29.963,30.0493636363636,0.895
9/7/2004 00:00:00,30.41,30.059,30.1306363636364,0.59
9/8/2004 00:00:00,30.09,30.086,30.1362727272727,0.00499999999999901
9/9/2004 00:00:00,30.01,30.0785,30.1224545454545,-0.134999999999998
9/10/2004 00:00:00,29.975,30.0615,30.1036363636364,0.0250000000000021
9/13/2004 00:00:00,30.09,30.0755,30.1088181818182,0.280000000000001
9/14/2004 00:00:00,29.805,30.075,30.0596363636364,-0.0800000000000018
9/15/2004 00:00:00,29.73,30.0595,29.9969090909091,0.00499999999999901
9/16/2004 00:00:00,29.9,30.077,29.9679090909091,-0.515000000000001
9/17/2004 00:00:00,29.725,30.008,29.9039090909091,-0.619999999999997
9/20/2004 00:00:00,29.685,29.942,29.8451818181818,-0.725000000000001
9/21/2004 00:00:00,29.765,29.8775,29.813,-0.324999999999999
9/22/2004 00:00:00,29.505,29.819,29.7452727272727,-0.505000000000003
9/23/2004 00:00:00,29.335,29.7515,29.6572727272727,-0.640000000000001
9/24/2004 00:00:00,29.83,29.737,29.6715454545454,-0.260000000000002
9/27/2004 00:00:00,29.74,29.702,29.6720909090909,-0.0650000000000013
9/28/2004 00:00:00,30.205,29.742,29.7635454545455,0.474999999999998
9/29/2004 00:00:00,30.635,29.8325,29.9259090909091,0.735000000000003
9/30/2004 00:00:00,30.64,29.9065,30.0727272727273,0.914999999999999
10/1/2004 00:00:00,31.03,30.037,30.277,1.345
10/4/2004 00:00:00,31.105,30.179,30.4711818181818,1.34
10/5/2004 00:00:00,30.9,30.2925,30.6022727272727,1.395
10/6/2004 00:00:00,31.11,30.453,30.7509090909091,1.775
10/7/2004 00:00:00,30.695,30.589,30.7949090909091,0.865000000000002
10/8/2004 00:00:00,30.48,30.654,30.7750909090909,0.740000000000002
10/11/2004 00:00:00,30.525,30.7325,30.7516363636364,0.32
10/12/2004 00:00:00,30.33,30.745,30.6784545454545,-0.305000000000003
10/13/2004 00:00:00,29.46,30.6275,30.4448181818182,-1.18
10/14/2004 00:00:00,29.96,30.5595,30.3234545454545,-1.07
10/15/2004 00:00:00,30.27,30.4835,30.2708181818182,-0.835000000000001
10/18/2004 00:00:00,30.27,30.4,30.232,-0.629999999999999
10/19/2004 00:00:00,29.75,30.285,30.1138181818182,-1.36
10/20/2004 00:00:00,30.01,30.175,30.0638181818182,-0.684999999999999
10/21/2004 00:00:00,30.085,30.114,30.0474545454545,-0.395
10/22/2004 00:00:00,30.065,30.0725,30.0385454545455,-0.459999999999997
10/25/2004 00:00:00,30.47,30.067,30.1108181818182,0.140000000000001
10/26/2004 00:00:00,30.96,30.13,30.2731818181818,1.5
10/27/2004 00:00:00,31.44,30.328,30.5113636363636,1.48
10/28/2004 00:00:00,31.22,30.454,30.6735454545455,0.949999999999999
10/29/2004 00:00:00,31.875,30.6145,30.9319090909091,1.605
11/1/2004 00:00:00,31.825,30.77,31.152,2.075
11/2/2004 00:00:00,31.825,30.9775,31.3438181818182,1.815
11/3/2004 00:00:00,32.315,31.208,31.587,2.23
11/4/2004 00:00:00,33.045,31.504,31.921,2.98
11/5/2004 00:00:00,32.91,31.7885,32.1766363636364,2.44
11/8/2004 00:00:00,32.805,32.022,32.3614545454545,1.845
11/9/2004 00:00:00,33.15,32.241,32.5665454545455,1.71
11/10/2004 00:00:00,33,32.397,32.7045454545455,1.78
11/11/2004 00:00:00,33.375,32.6125,32.8823636363636,1.5
11/12/2004 00:00:00,33.495,32.7745,33.0428181818182,1.67
11/15/2004 00:00:00,33.435,32.9355,33.1629090909091,1.61
11/16/2004 00:00:00,33.23,33.076,33.2164545454545,0.914999999999999
11/17/2004 00:00:00,33.43,33.1875,33.2808181818182,0.384999999999998
11/18/2004 00:00:00,33.66,33.249,33.3667272727273,0.75
11/19/2004 00:00:00,33.5,33.308,33.4123636363636,0.695
11/22/2004 00:00:00,33.7,33.3975,33.4836363636364,0.550000000000004
11/23/2004 00:00:00,33.54,33.4365,33.5095454545454,0.539999999999999
11/24/2004 00:00:00,33.7,33.5065,33.5574545454546,0.325000000000003
11/26/2004 00:00:00,33.965,33.5655,33.6408181818182,0.470000000000006
11/29/2004 00:00:00,34,33.616,33.7198181818182,0.564999999999998
11/30/2004 00:00:00,33.735,33.646,33.7414545454545,0.505000000000003
12/1/2004 00:00:00,34.275,33.7505,33.8558181818182,0.844999999999999
12/2/2004 00:00:00,34,33.8075,33.9011818181818,0.340000000000003
12/3/2004 00:00:00,33.805,33.822,33.9007272727273,0.305
12/6/2004 00:00:00,33.89,33.861,33.9130909090909,0.189999999999998
12/7/2004 00:00:00,32.96,33.787,33.7492727272727,-0.579999999999998
12/8/2004 00:00:00,33.01,33.734,33.608,-0.690000000000005
12/9/2004 00:00:00,32.895,33.6535,33.4554545454545,-1.07
12/10/2004 00:00:00,32.545,33.5115,33.2539090909091,-1.455
12/13/2004 00:00:00,33.175,33.429,33.1927272727273,-0.560000000000002
12/14/2004 00:00:00,33.58,33.4135,33.2201818181818,-0.695
12/15/2004 00:00:00,33.76,33.362,33.2831818181818,-0.240000000000002
12/16/2004 00:00:00,33.575,33.3195,33.3219090909091,-0.229999999999997
12/17/2004 00:00:00,33.2,33.259,33.3001818181818,-0.689999999999998
12/20/2004 00:00:00,33.45,33.215,33.3349090909091,0.490000000000002
12/21/2004 00:00:00,34,33.319,33.4776363636364,0.990000000000002
12/22/2004 00:00:00,33.985,33.4165,33.5987272727273,1.09
12/23/2004 00:00:00,33.995,33.5265,33.7039090909091,1.45
12/27/2004 00:00:00,33.86,33.658,33.7645454545455,0.685000000000002
12/28/2004 00:00:00,34.085,33.749,33.8421818181818,0.505000000000003
12/29/2004 00:00:00,34.01,33.792,33.8896363636364,0.25
12/30/2004 00:00:00,34.055,33.8215,33.9374545454545,0.479999999999997
12/31/2004 00:00:00,34.08,33.872,33.9844545454545,0.879999999999995
1/3/2005 00:00:00,33.625,33.9145,33.9395454545455,0.174999999999997
1/4/2005 00:00:00,32.865,33.856,33.7487272727273,-1.135
1/5/2005 00:00:00,32.4,33.696,33.484,-1.585
1/6/2005 00:00:00,32.86,33.5835,33.332,-1.135
1/7/2005 00:00:00,33.02,33.486,33.2295454545455,-0.839999999999996
1/10/2005 00:00:00,32.93,33.393,33.1284545454545,-1.155
1/11/2005 00:00:00,32.65,33.2495,32.9933636363636,-1.36
1/12/2005 00:00:00,33.04,33.1525,32.9552727272727,-1.015
1/13/2005 00:00:00,32.945,33.0415,32.9175454545454,-1.135
1/14/2005 00:00:00,33.06,32.9395,32.9209090909091,-0.564999999999998
1/18/2005 00:00:00,33.105,32.8875,32.951,0.239999999999995
1/19/2005 00:00:00,33.255,32.9265,33.0178181818182,0.855000000000004
1/20/2005 00:00:00,33.22,33.0085,33.0711818181818,0.359999999999999
1/21/2005 00:00:00,33.44,33.0665,33.1496363636364,0.419999999999995
1/24/2005 00:00:00,33.275,33.092,33.1875454545455,0.344999999999999
1/25/2005 00:00:00,33.745,33.1735,33.3062727272727,1.095
1/26/2005 00:00:00,33.925,33.301,33.4429090909091,0.884999999999998
1/27/2005 00:00:00,33.96,33.393,33.5627272727273,1.015
1/28/2005 00:00:00,33.935,33.492,33.6612727272727,0.875
1/31/2005 00:00:00,34.39,33.625,33.8245454545455,1.285
2/1/2005 00:00:00,34.575,33.772,33.9972727272727,1.32
2/2/2005 00:00:00,34.815,33.928,34.1869090909091,1.595
2/3/2005 00:00:00,34.725,34.0785,34.3318181818182,1.285
2/4/2005 00:00:00,35.175,34.252,34.5311818181818,1.9
2/7/2005 00:00:00,35.4,34.4645,34.7399090909091,1.655
2/8/2005 00:00:00,35.545,34.6445,34.9363636363636,1.62
2/9/2005 00:00:00,35.2,34.772,35.0373636363636,1.24
2/10/2005 00:00:00,35.475,34.9235,35.1651818181818,1.54
2/11/2005 00:00:00,35.675,35.0975,35.3018181818182,1.285
2/14/2005 00:00:00,35.68,35.2265,35.4077272727273,1.105
2/15/2005 00:00:00,36.045,35.3735,35.5565454545455,1.23
2/16/2005 00:00:00,35.94,35.486,35.6595454545455,1.215
2/17/2005 00:00:00,35.66,35.5795,35.6911818181818,0.484999999999999
2/18/2005 00:00:00,35.74,35.636,35.7203636363636,0.340000000000003
2/22/2005 00:00:00,35.11,35.607,35.6247272727273,-0.435000000000002
2/23/2005 00:00:00,35.815,35.634,35.6625454545455,0.614999999999995
2/24/2005 00:00:00,35.955,35.7095,35.7209090909091,0.479999999999997
2/25/2005 00:00:00,36.475,35.8095,35.8600909090909,0.800000000000004
2/28/2005 00:00:00,35.975,35.8395,35.8901818181818,0.295000000000002
3/1/2005 00:00:00,36.225,35.894,35.9602727272727,0.18
3/2/2005 00:00:00,35.99,35.8885,35.9777272727273,0.0500000000000043
3/3/2005 00:00:00,36.17,35.9115,36.0289090909091,0.510000000000005
3/4/2005 00:00:00,36.725,36.018,36.1768181818182,0.984999999999999
3/7/2005 00:00:00,36.74,36.118,36.3080909090909,1.63
3/8/2005 00:00:00,36.9,36.297,36.4502727272727,1.085
3/9/2005 00:00:00,36.825,36.398,36.5462727272727,0.870000000000005
3/10/2005 00:00:00,36.605,36.463,36.5839090909091,0.129999999999995
3/11/2005 00:00:00,36.475,36.463,36.5860909090909,0.5
3/14/2005 00:00:00,36.66,36.5315,36.6219090909091,0.434999999999995
3/15/2005 00:00:00,36.505,36.5595,36.6170909090909,0.515000000000001
3/16/2005 00:00:00,35.915,36.552,36.4999090909091,-0.255000000000003
3/17/2005 00:00:00,36.095,36.5445,36.4168181818182,-0.630000000000003
3/18/2005 00:00:00,35.86,36.458,36.2923636363636,-0.880000000000003
3/21/2005 00:00:00,35.715,36.3555,36.1572727272727,-1.185
3/22/2005 00:00:00,35.725,36.238,36.0426363636364,-1.1
3/23/2005 00:00:00,35.255,36.081,35.8639090909091,-1.34999999999999
3/24/2005 00:00:00,35.4,35.9605,35.7400909090909,-1.075
3/28/2005 00:00:00,35.31,35.844,35.6218181818182,-1.34999999999999
3/29/2005 00:00:00,34.73,35.651,35.4192727272727,-1.77500000000001
3/30/2005 00:00:00,35.5,35.5505,35.3918181818182,-0.414999999999999
3/31/2005 00:00:00,35.76,35.535,35.4299090909091,-0.335000000000001
4/1/2005 00:00:00,35.205,35.446,35.3699090909091,-0.655000000000001
4/4/2005 00:00:00,35.445,35.4045,35.3697272727273,-0.270000000000003
4/5/2005 00:00:00,35.485,35.3815,35.3843636363636,-0.240000000000002
4/6/2005 00:00:00,35.735,35.3825,35.4486363636364,0.479999999999997
4/7/2005 00:00:00,35.835,35.4405,35.5309090909091,0.435000000000002
4/8/2005 00:00:00,35.045,35.405,35.459,-0.265000000000001
4/11/2005 00:00:00,34.585,35.3325,35.3099090909091,-0.144999999999996
4/12/2005 00:00:00,34.95,35.3545,35.2403636363636,-0.549999999999997
4/13/2005 00:00:00,34.145,35.219,35.0204545454545,-1.61499999999999
4/14/2005 00:00:00,33.295,34.9725,34.6706363636364,-1.91
4/15/2005 00:00:00,32.485,34.7005,34.2183636363636,-2.96
4/18/2005 00:00:00,32.71,34.427,33.8564545454545,-2.775
4/19/2005 00:00:00,33.325,34.211,33.6560909090909,-2.41
4/20/2005 00:00:00,32.875,33.925,33.4131818181818,-2.96
4/21/2005 00:00:00,33.725,33.714,33.3768181818182,-1.32
4/22/2005 00:00:00,33.8,33.5895,33.3924545454545,-0.785000000000004
4/25/2005 00:00:00,34.225,33.5535,33.508,-0.725000000000001
4/26/2005 00:00:00,33.23,33.3815,33.4491818181818,-0.915000000000006
4/27/2005 00:00:00,33.13,33.28,33.4034545454545,-0.164999999999999
4/28/2005 00:00:00,33.065,33.257,33.3643636363636,0.579999999999998
4/29/2005 00:00:00,33.775,33.386,33.4585454545455,1.065
5/2/2005 00:00:00,34,33.515,33.5701818181818,0.674999999999997
5/3/2005 00:00:00,34.07,33.5895,33.6710909090909,1.195
5/4/2005 00:00:00,34.495,33.7515,33.8357272727273,0.769999999999996
5/5/2005 00:00:00,34.46,33.825,33.9645454545455,0.660000000000004
5/6/2005 00:00:00,34.445,33.8895,34.0772727272727,0.219999999999999
5/9/2005 00:00:00,34.295,33.8965,34.151,1.065
5/10/2005 00:00:00,33.68,33.9415,34.1116363636364,0.549999999999997
5/11/2005 00:00:00,33.545,33.983,34.0395454545455,0.480000000000004
5/12/2005 00:00:00,32.635,33.94,33.7944545454545,-1.14
5/13/2005 00:00:00,32.25,33.7875,33.4871818181818,-1.75
5/16/2005 00:00:00,32.42,33.6295,33.2385454545455,-1.65
5/17/2005 00:00:00,32.975,33.52,33.1195454545455,-1.52
5/18/2005 00:00:00,33.625,33.433,33.1386363636364,-0.835000000000001
5/19/2005 00:00:00,33.285,33.3155,33.1117272727273,-1.16
5/20/2005 00:00:00,33.05,33.176,33.0634545454545,-1.245
5/23/2005 00:00:00,33.53,33.0995,33.1278181818182,-0.149999999999999
5/24/2005 00:00:00,33.405,33.072,33.1833636363636,-0.140000000000001
5/25/2005 00:00:00,32.995,33.017,33.1693636363636,0.359999999999999
5/26/2005 00:00:00,33.05,33.0585,33.1753636363636,0.799999999999997
5/27/2005 00:00:00,32.975,33.131,33.1601818181818,0.555
5/31/2005 00:00:00,32.695,33.1585,33.0809090909091,-0.280000000000001
6/1/2005 00:00:00,33.25,33.186,33.0975454545455,-0.375
6/2/2005 00:00:00,33.09,33.1325,33.0800909090909,-0.194999999999993
6/3/2005 00:00:00,32.71,33.075,33.0032727272727,-0.339999999999996
6/6/2005 00:00:00,32.685,33.0385,32.9323636363636,-0.844999999999999
6/7/2005 00:00:00,32.66,32.9515,32.8635454545455,-0.745000000000005
6/8/2005 00:00:00,32.6,32.871,32.7996363636364,-0.394999999999996
6/9/2005 00:00:00,32.425,32.814,32.7185454545455,-0.625
6/10/2005 00:00:00,32.57,32.766,32.6741818181818,-0.405000000000001
6/13/2005 00:00:00,32.65,32.7335,32.6530909090909,-0.0450000000000017
6/14/2005 00:00:00,32.69,32.733,32.6451818181818,-0.560000000000002
6/15/2005 00:00:00,32.87,32.695,32.6700909090909,-0.220000000000006
6/16/2005 00:00:00,33.485,32.7345,32.8137272727273,0.774999999999999
6/17/2005 00:00:00,33.3,32.7935,32.9165454545454,0.614999999999995
6/20/2005 00:00:00,32.905,32.8155,32.9368181818182,0.245000000000005
6/21/2005 00:00:00,32.695,32.819,32.9149090909091,0.0949999999999989
6/22/2005 00:00:00,32.635,32.8225,32.8814545454545,0.210000000000001
6/23/2005 00:00:00,32.035,32.7835,32.7382727272727,-0.535000000000004
6/24/2005 00:00:00,31.49,32.6755,32.5030909090909,-1.16
6/27/2005 00:00:00,31.575,32.568,32.303,-1.115
6/28/2005 00:00:00,32.065,32.5055,32.2115454545455,-0.805
6/29/2005 00:00:00,31.905,32.409,32.1023636363636,-1.58
6/30/2005 00:00:00,31.38,32.1985,31.9152727272727,-1.92
7/1/2005 00:00:00,31.505,32.019,31.7891818181818,-1.4
7/5/2005 00:00:00,31.465,31.875,31.6884545454545,-1.23
7/6/2005 00:00:00,31.14,31.7195,31.5548181818182,-1.495
7/7/2005 00:00:00,31,31.556,31.424,-1.035
7/8/2005 00:00:00,31.535,31.506,31.4201818181818,0.0450000000000017
7/11/2005 00:00:00,32.245,31.5815,31.5545454545455,0.669999999999998
7/12/2005 00:00:00,32.12,31.636,31.6524545454545,0.0549999999999997
7/13/2005 00:00:00,31.85,31.6145,31.6913636363636,-0.0549999999999997
7/14/2005 00:00:00,32.09,31.633,31.7778181818182,0.710000000000004
7/15/2005 00:00:00,32.085,31.7035,31.86,0.580000000000002
7/18/2005 00:00:00,31.915,31.7445,31.8984545454545,0.449999999999999
7/19/2005 00:00:00,32.34,31.832,32.0067272727273,1.2
7/20/2005 00:00:00,32.88,32.006,32.1972727272727,1.88
7/21/2005 00:00:00,32.21,32.127,32.2343636363636,0.675000000000001
7/22/2005 00:00:00,32.79,32.2525,32.3549090909091,0.545000000000002
7/25/2005 00:00:00,32.425,32.2705,32.3862727272727,0.305
7/26/2005 00:00:00,32.145,32.273,32.3634545454545,0.295000000000002
7/27/2005 00:00:00,32.725,32.3605,32.4456363636364,0.634999999999998
7/28/2005 00:00:00,33.1,32.4615,32.5800909090909,1.015
7/29/2005 00:00:00,32.515,32.5045,32.5898181818182,0.600000000000001
8/1/2005 00:00:00,32.54,32.567,32.5962727272727,0.199999999999996
8/2/2005 00:00:00,32.945,32.6275,32.665,0.0649999999999977
8/3/2005 00:00:00,33.2,32.6595,32.7690909090909,0.990000000000002
8/4/2005 00:00:00,32.545,32.693,32.7482727272727,-0.244999999999997
8/5/2005 00:00:00,32.325,32.6465,32.6813636363636,-0.0999999999999943
8/8/2005 00:00:00,32.21,32.625,32.602,0.0649999999999977
8/9/2005 00:00:00,32.35,32.6455,32.552,-0.375
8/10/2005 00:00:00,32.285,32.6015,32.4864545454545,-0.815000000000005
8/11/2005 00:00:00,32.805,32.572,32.5234545454545,0.289999999999999
8/12/2005 00:00:00,32.29,32.5495,32.4721818181818,-0.25
8/15/2005 00:00:00,32.4,32.5355,32.445,-0.545000000000002
8/16/2005 00:00:00,31.745,32.4155,32.3012727272727,-1.455
8/17/2005 00:00:00,31.745,32.27,32.1793636363636,-0.800000000000001
8/18/2005 00:00:00,31.565,32.172,32.0511818181818,-0.760000000000002
8/19/2005 00:00:00,32.055,32.145,32.0299090909091,-0.155000000000001
8/22/2005 00:00:00,32.01,32.125,32.0053636363636,-0.340000000000003
8/23/2005 00:00:00,31.825,32.0725,31.9508181818182,-0.459999999999997
8/24/2005 00:00:00,31.595,32.0035,31.864,-1.21
8/25/2005 00:00:00,31.38,31.861,31.7506363636364,-0.91
8/26/2005 00:00:00,31.215,31.7535,31.6331818181818,-1.185
8/29/2005 00:00:00,31.465,31.66,31.5807272727273,-0.280000000000001
8/30/2005 00:00:00,31.285,31.614,31.5125454545455,-0.460000000000001
8/31/2005 00:00:00,31.49,31.5885,31.49,-0.0750000000000028
9/1/2005 00:00:00,31.445,31.5765,31.4639090909091,-0.609999999999999
9/2/2005 00:00:00,31.455,31.5165,31.4418181818182,-0.555
9/6/2005 00:00:00,31.435,31.459,31.427,-0.390000000000001
9/7/2005 00:00:00,31.525,31.429,31.439,-0.0700000000000003
9/8/2005 00:00:00,31.45,31.4145,31.4428181818182,0.0700000000000003
9/9/2005 00:00:00,31.375,31.414,31.4356363636364,0.16
9/12/2005 00:00:00,31.5,31.4425,31.4512727272727,0.0350000000000001
9/13/2005 00:00:00,31.055,31.4015,31.3808181818182,-0.23
9/14/2005 00:00:00,30.95,31.368,31.2987272727273,-0.539999999999999
9/15/2005 00:00:00,30.745,31.2935,31.1854545454545,-0.699999999999999
9/16/2005 00:00:00,31.075,31.2565,31.1457272727273,-0.379999999999999
9/19/2005 00:00:00,30.895,31.2005,31.08,-0.539999999999999
9/20/2005 00:00:00,30.18,31.075,30.8944545454546,-1.345
9/21/2005 00:00:00,29.565,30.879,30.6199090909091,-1.885
9/22/2005 00:00:00,29.6,30.694,30.3873636363636,-1.775
9/23/2005 00:00:00,29.78,30.5345,30.2211818181818,-1.72
9/26/2005 00:00:00,29.475,30.332,30.0285454545455,-1.58
9/27/2005 00:00:00,29.25,30.1515,29.8318181818182,-1.7
9/28/2005 00:00:00,28.97,29.9535,29.617,-1.775
9/29/2005 00:00:00,29.245,29.8035,29.4881818181818,-1.83
9/30/2005 00:00:00,29.595,29.6555,29.4502727272727,-1.3
10/3/2005 00:00:00,29.085,29.4745,29.3465454545455,-1.095
10/4/2005 00:00:00,28.695,29.326,29.2048181818182,-0.870000000000001
10/5/2005 00:00:00,28.26,29.1955,29.011,-1.34
10/6/2005 00:00:00,28.065,29.042,28.8054545454545,-1.715
10/7/2005 00:00:00,28.65,28.929,28.7341818181818,-0.825000000000003
10/10/2005 00:00:00,28.23,28.8045,28.6070909090909,-1.02
10/11/2005 00:00:00,27.975,28.677,28.4562727272727,-0.994999999999997
10/12/2005 00:00:00,27.98,28.578,28.3295454545455,-1.265
10/13/2005 00:00:00,28.1,28.4635,28.2426363636364,-1.495
10/14/2005 00:00:00,28.43,28.347,28.2365454545455,-0.655000000000001
10/17/2005 00:00:00,28.505,28.289,28.2652727272727,-0.190000000000001
10/18/2005 00:00:00,28.295,28.249,28.2663636363636,0.0350000000000001
10/19/2005 00:00:00,28.525,28.2755,28.3165454545455,0.459999999999997
10/20/2005 00:00:00,28.88,28.357,28.4264545454545,0.23
10/21/2005 00:00:00,29.135,28.4055,28.5679090909091,0.905000000000001
10/24/2005 00:00:00,29.57,28.5395,28.7796363636364,1.595
10/25/2005 00:00:00,28.995,28.6415,28.8624545454545,1.015
10/26/2005 00:00:00,29.15,28.7585,28.9549090909091,1.05
10/27/2005 00:00:00,28.96,28.8445,28.9915454545455,0.530000000000001
10/28/2005 00:00:00,29.7,28.9715,29.1470909090909,1.195
10/31/2005 00:00:00,29.985,29.1195,29.3313636363636,1.69
11/1/2005 00:00:00,29.96,29.286,29.4841818181818,1.435
11/2/2005 00:00:00,30.28,29.4615,29.6649090909091,1.4
11/3/2005 00:00:00,29.98,29.5715,29.7591818181818,0.844999999999999
11/4/2005 00:00:00,29.9,29.648,29.8189090909091,0.329999999999998
